"epoch","loss","lr","part","step","time","accuracy","auprc","auroc","challenge_metric","f_beta_measure","f_measure","g_beta_measure"
0.0,0.382029265165329,8.000730236035311e-05,"train",20.0,"2021-11-24 00:22:16.299419","","","","","","",""
0.0,0.17767967283725739,8.002920933031948e-05,"train",40.0,"2021-11-24 00:22:25.749273","","","","","","",""
0.0,0.12404631078243256,8.006572057662293e-05,"train",60.0,"2021-11-24 00:22:35.143297","","","","","","",""
0.0,0.1294514387845993,8.011683554380914e-05,"train",80.0,"2021-11-24 00:22:45.202420","","","","","","",""
0.0,0.11660506576299667,8.018255345425274e-05,"train",100.0,"2021-11-24 00:22:54.516182","","","","","","",""
0.0,0.10534202307462692,8.026287330817079e-05,"train",120.0,"2021-11-24 00:23:04.017058","","","","","","",""
0.0,0.11469341069459915,8.03577938836373e-05,"train",140.0,"2021-11-24 00:23:13.414669","","","","","","",""
0.0,0.12359060347080231,8.04673137366021e-05,"train",160.0,"2021-11-24 00:23:22.882752","","","","","","",""
0.0,0.13576047122478485,8.059143120091187e-05,"train",180.0,"2021-11-24 00:23:32.299642","","","","","","",""
0.0,0.13165318965911865,8.073014438833613e-05,"train",200.0,"2021-11-24 00:23:42.338141","","","","","","",""
0.0,0.11278814822435379,8.088345118859724e-05,"train",220.0,"2021-11-24 00:23:51.691585","","","","","","",""
0.0,0.1150500625371933,8.10513492693996e-05,"train",240.0,"2021-11-24 00:24:01.059742","","","","","","",""
0.0,0.10785466432571411,8.123383607646804e-05,"train",260.0,"2021-11-24 00:24:10.397908","","","","","","",""
0.0,0.12342730164527893,8.143090883358495e-05,"train",280.0,"2021-11-24 00:24:19.717845","","","","","","",""
0.0,0.11586987227201462,8.164256454263295e-05,"train",300.0,"2021-11-24 00:24:29.047194","","","","","","",""
0.0,0.1264384537935257,8.186879998364088e-05,"train",320.0,"2021-11-24 00:24:39.080838","","","","","","",""
0.0,0.12848711013793945,8.210961171483213e-05,"train",340.0,"2021-11-24 00:24:48.364834","","","","","","",""
0.0,0.10164963454008102,8.236499607267717e-05,"train",360.0,"2021-11-24 00:24:57.680047","","","","","","",""
0.0,0.09389163553714752,8.26349491719505e-05,"train",380.0,"2021-11-24 00:25:07.060557","","","","","","",""
0.0,0.09103702008724213,8.291946690578713e-05,"train",400.0,"2021-11-24 00:25:16.344377","","","","","","",""
0.0,0.11620648205280304,8.321854494574774e-05,"train",420.0,"2021-11-24 00:25:25.647593","","","","","","",""
0.0,0.09300142526626587,8.353217874188293e-05,"train",440.0,"2021-11-24 00:25:35.635624","","","","","","",""
0.0,0.09453584998846054,8.38603635228035e-05,"train",460.0,"2021-11-24 00:25:44.996898","","","","","","",""
0.0,0.09821462631225586,8.420309429575212e-05,"train",480.0,"2021-11-24 00:25:54.291728","","","","","","",""
0.0,0.09668218344449997,8.456036584667914e-05,"train",500.0,"2021-11-24 00:26:03.575421","","","","","","",""
0.0,0.08910436183214188,8.493217274032315e-05,"train",520.0,"2021-11-24 00:26:12.864242","","","","","","",""
0.0,0.11070585995912552,8.531850932029235e-05,"train",540.0,"2021-11-24 00:26:22.137064","","","","","","",""
0.0,0.10324127972126007,8.571936970915212e-05,"train",560.0,"2021-11-24 00:26:31.537339","","","","","","",""
0.0,0.09248335659503937,8.613474780851246e-05,"train",580.0,"2021-11-24 00:26:41.530402","","","","","","",""
0.0,0.09589844197034836,8.656463729912224e-05,"train",600.0,"2021-11-24 00:26:50.918384","","","","","","",""
0.0,0.07443144172430038,8.700903164096468e-05,"train",620.0,"2021-11-24 00:27:00.234209","","","","","","",""
0.0,0.06473392248153687,8.746792407335769e-05,"train",640.0,"2021-11-24 00:27:09.557026","","","","","","",""
0.0,0.08387313038110733,8.794130761505497e-05,"train",660.0,"2021-11-24 00:27:18.978603","","","","","","",""
0.0,0.09094574302434921,8.842917506435462e-05,"train",680.0,"2021-11-24 00:27:28.328293","","","","","","",""
0.0,0.08673824369907379,8.893151899920645e-05,"train",700.0,"2021-11-24 00:27:38.458968","","","","","","",""
0.0,0.08408457040786743,8.944833177732632e-05,"train",720.0,"2021-11-24 00:27:47.870907","","","","","","",""
0.0,0.07403011620044708,8.997960553631186e-05,"train",740.0,"2021-11-24 00:27:57.256420","","","","","","",""
0.0,0.077669657766819,9.052533219376224e-05,"train",760.0,"2021-11-24 00:28:06.487609","","","","","","",""
0.0,0.0842154398560524,9.108550344740104e-05,"train",780.0,"2021-11-24 00:28:15.778149","","","","","","",""
0.0,0.0963585302233696,9.166011077520208e-05,"train",800.0,"2021-11-24 00:28:25.067786","","","","","","",""
0.0,0.08619725704193115,9.224914543552059e-05,"train",820.0,"2021-11-24 00:28:35.138770","","","","","","",""
0.0,0.0783524289727211,9.285259846722417e-05,"train",840.0,"2021-11-24 00:28:44.461624","","","","","","",""
0.0,0.07890469580888748,9.34704606898307e-05,"train",860.0,"2021-11-24 00:28:53.773791","","","","","","",""
0.0,0.09235623478889465,9.410272270364735e-05,"train",880.0,"2021-11-24 00:29:03.055674","","","","","","",""
0.0,0.08675335347652435,9.474937488991348e-05,"train",900.0,"2021-11-24 00:29:12.384673","","","","","","",""
0.0,0.0843544602394104,9.541040741094719e-05,"train",920.0,"2021-11-24 00:29:21.666957","","","","","","",""
0.0,0.09030316770076752,9.608581021029522e-05,"train",940.0,"2021-11-24 00:29:31.722174","","","","","","",""
0.0,0.07223398983478546,9.677557301288509e-05,"train",960.0,"2021-11-24 00:29:41.019442","","","","","","",""
0.0,0.0909881591796875,9.747968532518238e-05,"train",980.0,"2021-11-24 00:29:50.393533","","","","","","",""
0.0,0.07854471355676651,9.819813643535029e-05,"train",1000.0,"2021-11-24 00:29:59.738532","","","","","","",""
0.0,0.08833977580070496,9.893091541341185e-05,"train",1020.0,"2021-11-24 00:30:09.080367","","","","","","",""
0.0,0.09050098806619644,9.967801111141644e-05,"train",1040.0,"2021-11-24 00:30:18.452630","","","","","","",""
0.0,0.08204429596662521,0.00010043941216361023,"train",1060.0,"2021-11-24 00:30:28.426034","","","","","","",""
0.0,"","","train",1074.0,"2021-11-24 00:34:56.122947",0.45307429236702323,0.34976634720709926,0.87364433016119,0.3990509946420791,0.21506071455394415,0.21543726730450335,0.14575096952756977
0.0,"","","val",1074.0,"2021-11-24 00:36:03.837224",0.4519308825234837,0.3416742455222058,0.8699433253107443,0.3965875043203777,0.21074020975199265,0.21117884704725898,0.14261607548876146
1.0,0.07539905607700348,0.00010121510698660771,"train",1080.0,"2021-11-24 00:36:09.358493","","","","","","",""
1.0,0.09694556146860123,0.00010200508377956928,"train",1100.0,"2021-11-24 00:36:18.903109","","","","","","",""
1.0,0.07060977071523666,0.00010280933052437993,"train",1120.0,"2021-11-24 00:36:28.237044","","","","","","",""
1.0,0.07133490592241287,0.00010362783498583223,"train",1140.0,"2021-11-24 00:36:37.657707","","","","","","",""
1.0,0.09529978781938553,0.0001044605847118124,"train",1160.0,"2021-11-24 00:36:47.016106","","","","","","",""
1.0,0.0627705305814743,0.0001053075670334907,"train",1180.0,"2021-11-24 00:36:57.087684","","","","","","",""
1.0,0.0706840381026268,0.00010616876906551181,"train",1200.0,"2021-11-24 00:37:06.679199","","","","","","",""
1.0,0.0809069499373436,0.0001070441777061941,"train",1220.0,"2021-11-24 00:37:16.033486","","","","","","",""
1.0,0.07432013750076294,0.00010793377963772563,"train",1240.0,"2021-11-24 00:37:25.420613","","","","","","",""
1.0,0.08200325816869736,0.0001088375613263698,"train",1260.0,"2021-11-24 00:37:34.790911","","","","","","",""
1.0,0.08555283397436142,0.00010975550902266908,"train",1280.0,"2021-11-24 00:37:44.214570","","","","","","",""
1.0,0.06389524042606354,0.00011068760876165474,"train",1300.0,"2021-11-24 00:37:54.318099","","","","","","",""
1.0,0.09913114458322525,0.0001116338463630598,"train",1320.0,"2021-11-24 00:38:03.623724","","","","","","",""
1.0,0.06678774207830429,0.00011259420743153455,"train",1340.0,"2021-11-24 00:38:12.965278","","","","","","",""
1.0,0.0881519690155983,0.00011356867735686535,"train",1360.0,"2021-11-24 00:38:22.385112","","","","","","",""
1.0,0.08554460853338242,0.00011455724131419621,"train",1380.0,"2021-11-24 00:38:31.677997","","","","","","",""
1.0,0.08854052424430847,0.00011555988426425654,"train",1400.0,"2021-11-24 00:38:41.037372","","","","","","",""
1.0,0.0793665423989296,0.00011657659095358746,"train",1420.0,"2021-11-24 00:38:50.400932","","","","","","",""
1.0,0.06950944662094116,0.00011760734591477516,"train",1440.0,"2021-11-24 00:39:00.480194","","","","","","",""
1.0,0.06961207836866379,0.00011865213346668618,"train",1460.0,"2021-11-24 00:39:09.799606","","","","","","",""
1.0,0.06745642423629761,0.00011971093771470502,"train",1480.0,"2021-11-24 00:39:19.134752","","","","","","",""
1.0,0.06951018422842026,0.0001207837425509777,"train",1500.0,"2021-11-24 00:39:28.494542","","","","","","",""
1.0,0.0842878669500351,0.00012187053165465503,"train",1520.0,"2021-11-24 00:39:37.890477","","","","","","",""
1.0,0.06975530087947845,0.000122971288492142,"train",1540.0,"2021-11-24 00:39:47.218501","","","","","","",""
1.0,0.09022896736860275,0.00012408599631734863,"train",1560.0,"2021-11-24 00:39:57.289869","","","","","","",""
1.0,0.06300011277198792,0.00012521463817194542,"train",1580.0,"2021-11-24 00:40:06.668436","","","","","","",""
1.0,0.07382013648748398,0.00012635719688562077,"train",1600.0,"2021-11-24 00:40:15.981692","","","","","","",""
1.0,0.06724857538938522,0.00012751365507634267,"train",1620.0,"2021-11-24 00:40:25.359603","","","","","","",""
1.0,0.05670062452554703,0.0001286839951506226,"train",1640.0,"2021-11-24 00:40:34.702618","","","","","","",""
1.0,0.07092741131782532,0.00012986819930378333,"train",1660.0,"2021-11-24 00:40:44.037511","","","","","","",""
1.0,0.05660814791917801,0.00013106624952023064,"train",1680.0,"2021-11-24 00:40:54.077366","","","","","","",""
1.0,0.09045997262001038,0.00013227812757372545,"train",1700.0,"2021-11-24 00:41:03.445511","","","","","","",""
1.0,0.09638421982526779,0.00013350381502766394,"train",1720.0,"2021-11-24 00:41:12.787684","","","","","","",""
1.0,0.052762433886528015,0.00013474329323535494,"train",1740.0,"2021-11-24 00:41:22.127535","","","","","","",""
1.0,0.0679808184504509,0.0001359965433403059,"train",1760.0,"2021-11-24 00:41:31.467221","","","","","","",""
1.0,0.09328009188175201,0.00013726354627650872,"train",1780.0,"2021-11-24 00:41:40.830983","","","","","","",""
1.0,0.06108548492193222,0.00013854428276873052,"train",1800.0,"2021-11-24 00:41:50.824791","","","","","","",""
1.0,0.05584781616926193,0.00013983873333280506,"train",1820.0,"2021-11-24 00:42:00.161577","","","","","","",""
1.0,0.07543344795703888,0.00014114687827593156,"train",1840.0,"2021-11-24 00:42:09.496205","","","","","","",""
1.0,0.05956738814711571,0.00014246869769697352,"train",1860.0,"2021-11-24 00:42:18.877000","","","","","","",""
1.0,0.05774606391787529,0.00014380417148676054,"train",1880.0,"2021-11-24 00:42:28.202835","","","","","","",""
1.0,0.0914207249879837,0.00014515327932839404,"train",1900.0,"2021-11-24 00:42:37.570752","","","","","","",""
1.0,0.06929343193769455,0.0001465160006975598,"train",1920.0,"2021-11-24 00:42:47.641653","","","","","","",""
1.0,0.055632151663303375,0.00014789231486283454,"train",1940.0,"2021-11-24 00:42:56.952636","","","","","","",""
1.0,0.07836591452360153,0.00014928220088600633,"train",1960.0,"2021-11-24 00:43:06.289675","","","","","","",""
1.0,0.0739661306142807,0.00015068563762239045,"train",1980.0,"2021-11-24 00:43:15.623284","","","","","","",""
1.0,0.07825396955013275,0.00015210260372115238,"train",2000.0,"2021-11-24 00:43:24.967526","","","","","","",""
1.0,0.06703974306583405,0.00015353307762563115,"train",2020.0,"2021-11-24 00:43:34.353544","","","","","","",""
1.0,0.07102322578430176,0.00015497703757366872,"train",2040.0,"2021-11-24 00:43:44.357899","","","","","","",""
1.0,0.05618341639637947,0.00015643446159794,"train",2060.0,"2021-11-24 00:43:53.684776","","","","","","",""
1.0,0.05855412036180496,0.0001579053275262887,"train",2080.0,"2021-11-24 00:44:02.996662","","","","","","",""
1.0,0.08910602331161499,0.00015938961298206183,"train",2100.0,"2021-11-24 00:44:12.293412","","","","","","",""
1.0,0.06542054563760757,0.00016088729538445297,"train",2120.0,"2021-11-24 00:44:21.688591","","","","","","",""
1.0,0.07530258595943451,0.000162398351948844,"train",2140.0,"2021-11-24 00:44:30.996406","","","","","","",""
1.0,"","","train",2148.0,"2021-11-24 00:48:55.964259",0.5171068907807611,0.45830395754873293,0.9186546747250055,0.47993182181921207,0.3234779388687177,0.33155943588924885,0.22021402337010187
1.0,"","","val",2148.0,"2021-11-24 00:50:03.774671",0.5124086744752406,0.45005378538321933,0.9138287576442168,0.47188047572598546,0.3194414768813374,0.32520464854971676,0.21527797769234688
2.0,0.05082264542579651,0.00016392275968715297,"train",2160.0,"2021-11-24 00:50:12.835860","","","","","","",""
2.0,0.05706370994448662,0.00016546049540818223,"train",2180.0,"2021-11-24 00:50:22.228231","","","","","","",""
2.0,0.0717034861445427,0.00016701153571797313,"train",2200.0,"2021-11-24 00:50:31.596245","","","","","","",""
2.0,0.05606404319405556,0.00016857585702016015,"train",2220.0,"2021-11-24 00:50:40.915506","","","","","","",""
2.0,0.06506635993719101,0.00017015343551633126,"train",2240.0,"2021-11-24 00:50:50.294852","","","","","","",""
2.0,0.05324246361851692,0.0001717442472063892,"train",2260.0,"2021-11-24 00:51:00.306928","","","","","","",""
2.0,0.0605747364461422,0.00017334826788891681,"train",2280.0,"2021-11-24 00:51:09.599136","","","","","","",""
2.0,0.05627945438027382,0.00017496547316154555,"train",2300.0,"2021-11-24 00:51:18.990997","","","","","","",""
2.0,0.055407024919986725,0.00017659583842132573,"train",2320.0,"2021-11-24 00:51:28.342481","","","","","","",""
2.0,0.060529958456754684,0.00017823933886510217,"train",2340.0,"2021-11-24 00:51:37.833534","","","","","","",""
2.0,0.06176527962088585,0.00017989594948989015,"train",2360.0,"2021-11-24 00:51:47.801274","","","","","","",""
2.0,0.07472115755081177,0.00018156564509325753,"train",2380.0,"2021-11-24 00:51:57.096269","","","","","","",""
2.0,0.042832136154174805,0.0001832484002737059,"train",2400.0,"2021-11-24 00:52:06.452485","","","","","","",""
2.0,0.05651259794831276,0.00018494418943105877,"train",2420.0,"2021-11-24 00:52:15.831995","","","","","","",""
2.0,0.053027138113975525,0.00018665298676685078,"train",2440.0,"2021-11-24 00:52:25.141053","","","","","","",""
2.0,0.07353980839252472,0.0001883747662847191,"train",2460.0,"2021-11-24 00:52:35.127721","","","","","","",""
2.0,0.06864682585000992,0.00019010950179080112,"train",2480.0,"2021-11-24 00:52:44.476154","","","","","","",""
2.0,0.1038307473063469,0.00019185716689412995,"train",2500.0,"2021-11-24 00:52:53.876626","","","","","","",""
2.0,0.07639124244451523,0.00019361773500703797,"train",2520.0,"2021-11-24 00:53:03.159147","","","","","","",""
2.0,0.07389390468597412,0.00019539117934556168,"train",2540.0,"2021-11-24 00:53:12.585296","","","","","","",""
2.0,0.08021191507577896,0.00019717747292984696,"train",2560.0,"2021-11-24 00:53:22.539143","","","","","","",""
2.0,0.07677685469388962,0.0001989765885845624,"train",2580.0,"2021-11-24 00:53:31.866085","","","","","","",""
2.0,0.058133598417043686,0.00020078849893931014,"train",2600.0,"2021-11-24 00:53:41.174664","","","","","","",""
2.0,0.053097404539585114,0.0002026131764290434,"train",2620.0,"2021-11-24 00:53:50.510274","","","","","","",""
2.0,0.05341196432709694,0.00020445059329448614,"train",2640.0,"2021-11-24 00:53:59.814829","","","","","","",""
2.0,0.05357712134718895,0.00020630072158255497,"train",2660.0,"2021-11-24 00:54:09.846345","","","","","","",""
2.0,0.05176181346178055,0.00020816353314678467,"train",2680.0,"2021-11-24 00:54:19.146498","","","","","","",""
2.0,0.0416845977306366,0.00021003899964775505,"train",2700.0,"2021-11-24 00:54:28.407567","","","","","","",""
2.0,0.08430136740207672,0.00021192709255352473,"train",2720.0,"2021-11-24 00:54:37.709380","","","","","","",""
2.0,0.05218277871608734,0.00021382778314006255,"train",2740.0,"2021-11-24 00:54:47.006138","","","","","","",""
2.0,0.07241817563772202,0.00021574104249168615,"train",2760.0,"2021-11-24 00:54:57.006767","","","","","","",""
2.0,0.0624934658408165,0.00021766684150150133,"train",2780.0,"2021-11-24 00:55:06.451320","","","","","","",""
2.0,0.05256142094731331,0.00021960515087184485,"train",2800.0,"2021-11-24 00:55:15.809788","","","","","","",""
2.0,0.07041638344526291,0.00022155594111472978,"train",2820.0,"2021-11-24 00:55:25.163583","","","","","","",""
2.0,0.07667430490255356,0.0002235191825522959,"train",2840.0,"2021-11-24 00:55:34.485987","","","","","","",""
2.0,0.08347133547067642,0.00022549484531725838,"train",2860.0,"2021-11-24 00:55:44.383866","","","","","","",""
2.0,0.0601031519472599,0.00022748289935336434,"train",2880.0,"2021-11-24 00:55:53.727360","","","","","","",""
2.0,0.06615784019231796,0.00022948331441584964,"train",2900.0,"2021-11-24 00:56:03.129829","","","","","","",""
2.0,0.05852583050727844,0.00023149606007189785,"train",2920.0,"2021-11-24 00:56:12.465118","","","","","","",""
2.0,0.07373984158039093,0.00023352110570110476,"train",2940.0,"2021-11-24 00:56:21.780299","","","","","","",""
2.0,0.0506671778857708,0.00023555842049594305,"train",2960.0,"2021-11-24 00:56:31.863165","","","","","","",""
2.0,0.061626385897397995,0.00023760797346223305,"train",2980.0,"2021-11-24 00:56:41.206823","","","","","","",""
2.0,0.04555993154644966,0.00023966973341961028,"train",3000.0,"2021-11-24 00:56:50.628043","","","","","","",""
2.0,0.052227992564439774,0.0002417436690020044,"train",3020.0,"2021-11-24 00:56:59.992550","","","","","","",""
2.0,0.05078783631324768,0.00024382974865811325,"train",3040.0,"2021-11-24 00:57:09.355016","","","","","","",""
2.0,0.059625111520290375,0.000245927940651884,"train",3060.0,"2021-11-24 00:57:19.291473","","","","","","",""
2.0,0.05499278008937836,0.0002480382130629953,"train",3080.0,"2021-11-24 00:57:28.602048","","","","","","",""
2.0,0.047683313488960266,0.0002501605337873443,"train",3100.0,"2021-11-24 00:57:37.932610","","","","","","",""
2.0,0.056237537413835526,0.0002522948705375337,"train",3120.0,"2021-11-24 00:57:47.269365","","","","","","",""
2.0,0.06023181602358818,0.00025444119084336303,"train",3140.0,"2021-11-24 00:57:56.571454","","","","","","",""
2.0,0.06150327995419502,0.00025659946205232364,"train",3160.0,"2021-11-24 00:58:06.680262","","","","","","",""
2.0,0.04968468099832535,0.0002587696513300941,"train",3180.0,"2021-11-24 00:58:15.983709","","","","","","",""
2.0,0.051945559680461884,0.0002609517256610412,"train",3200.0,"2021-11-24 00:58:25.334208","","","","","","",""
2.0,0.051658470183610916,0.00026314565184872084,"train",3220.0,"2021-11-24 00:58:34.598815","","","","","","",""
2.0,"","","train",3222.0,"2021-11-24 01:02:56.156849",0.5462708287855635,0.5101155029560271,0.9360081921750864,0.5258745006538211,0.37709358202727644,0.3918441191325624,0.2541433766814041
2.0,"","","val",3222.0,"2021-11-24 01:04:03.766230",0.540241215354285,0.49516763210843495,0.9294632600719448,0.5141923154503205,0.3710600268508196,0.3825687240175569,0.24779229945707126
3.0,0.047214679419994354,0.0002653513965163838,"train",3240.0,"2021-11-24 01:04:14.864241","","","","","","",""
3.0,0.050734616816043854,0.0002675689261074836,"train",3260.0,"2021-11-24 01:04:24.988973","","","","","","",""
3.0,0.07554478943347931,0.00026979820688618605,"train",3280.0,"2021-11-24 01:04:34.340946","","","","","","",""
3.0,0.06445172429084778,0.00027203920493788433,"train",3300.0,"2021-11-24 01:04:43.695248","","","","","","",""
3.0,0.08483678102493286,0.00027429188616971277,"train",3320.0,"2021-11-24 01:04:53.010530","","","","","","",""
3.0,0.05016211420297623,0.0002765562163110668,"train",3340.0,"2021-11-24 01:05:03.022156","","","","","","",""
3.0,0.06511281430721283,0.00027883216091412503,"train",3360.0,"2021-11-24 01:05:12.337961","","","","","","",""
3.0,0.06219533458352089,0.0002811196853543707,"train",3380.0,"2021-11-24 01:05:21.660729","","","","","","",""
3.0,0.08477423340082169,0.00028341875483112134,"train",3400.0,"2021-11-24 01:05:30.990775","","","","","","",""
3.0,0.05853768438100815,0.00028572933436805644,"train",3420.0,"2021-11-24 01:05:40.942098","","","","","","",""
3.0,0.08944516628980637,0.0002880513888137504,"train",3440.0,"2021-11-24 01:05:50.417465","","","","","","",""
3.0,0.0645979791879654,0.0002903848828422063,"train",3460.0,"2021-11-24 01:05:59.747004","","","","","","",""
3.0,0.050760358572006226,0.00029272978095339465,"train",3480.0,"2021-11-24 01:06:09.043350","","","","","","",""
3.0,0.06488320976495743,0.00029508604747379243,"train",3500.0,"2021-11-24 01:06:19.065278","","","","","","",""
3.0,0.04875947907567024,0.00029745364655692653,"train",3520.0,"2021-11-24 01:06:28.404634","","","","","","",""
3.0,0.035331856459379196,0.0002998325421839181,"train",3540.0,"2021-11-24 01:06:37.728822","","","","","","",""
3.0,0.06306837499141693,0.0003022226981640318,"train",3560.0,"2021-11-24 01:06:47.101840","","","","","","",""
3.0,0.07904898375272751,0.00030462407813522494,"train",3580.0,"2021-11-24 01:06:57.156943","","","","","","",""
3.0,0.05746037885546684,0.0003070366455647027,"train",3600.0,"2021-11-24 01:07:06.534233","","","","","","",""
3.0,0.0678800642490387,0.000309460363749471,"train",3620.0,"2021-11-24 01:07:15.882567","","","","","","",""
3.0,0.09922905266284943,0.0003118951958168978,"train",3640.0,"2021-11-24 01:07:25.316716","","","","","","",""
3.0,0.04867759346961975,0.0003143411047252722,"train",3660.0,"2021-11-24 01:07:35.314964","","","","","","",""
3.0,0.05275598168373108,0.0003167980532643691,"train",3680.0,"2021-11-24 01:07:44.691909","","","","","","",""
3.0,0.0653424933552742,0.0003192660040560141,"train",3700.0,"2021-11-24 01:07:54.004207","","","","","","",""
3.0,0.05543363839387894,0.0003217449195546528,"train",3720.0,"2021-11-24 01:08:03.344518","","","","","","",""
3.0,0.07704567909240723,0.00032423476204792244,"train",3740.0,"2021-11-24 01:08:13.362053","","","","","","",""
3.0,0.04983283951878548,0.0003267354936572248,"train",3760.0,"2021-11-24 01:08:22.762935","","","","","","",""
3.0,0.07928969711065292,0.0003292470763383026,"train",3780.0,"2021-11-24 01:08:32.101837","","","","","","",""
3.0,0.06211962550878525,0.0003317694718818192,"train",3800.0,"2021-11-24 01:08:41.468758","","","","","","",""
3.0,0.05263127014040947,0.00033430264191393853,"train",3820.0,"2021-11-24 01:08:50.889264","","","","","","",""
3.0,0.08935875445604324,0.0003368465478969097,"train",3840.0,"2021-11-24 01:09:00.887455","","","","","","",""
3.0,0.07481513172388077,0.0003394011511296533,"train",3860.0,"2021-11-24 01:09:10.179707","","","","","","",""
3.0,0.05095221474766731,0.0003419664127483496,"train",3880.0,"2021-11-24 01:09:19.522602","","","","","","",""
3.0,0.050817545503377914,0.00034454229372703074,"train",3900.0,"2021-11-24 01:09:28.828366","","","","","","",""
3.0,0.0631629079580307,0.00034712875487817314,"train",3920.0,"2021-11-24 01:09:38.899581","","","","","","",""
3.0,0.09269130229949951,0.00034972575685329526,"train",3940.0,"2021-11-24 01:09:48.216895","","","","","","",""
3.0,0.046268612146377563,0.0003523332601435541,"train",3960.0,"2021-11-24 01:09:57.601215","","","","","","",""
3.0,0.058570295572280884,0.00035495122508034916,"train",3980.0,"2021-11-24 01:10:06.937467","","","","","","",""
3.0,0.06825230270624161,0.0003575796118359231,"train",4000.0,"2021-11-24 01:10:16.907044","","","","","","",""
3.0,0.04252011328935623,0.00036021838042396906,"train",4020.0,"2021-11-24 01:10:26.230232","","","","","","",""
3.0,0.06266006082296371,0.0003628674907002389,"train",4040.0,"2021-11-24 01:10:35.558991","","","","","","",""
3.0,0.08561435341835022,0.00036552690236315395,"train",4060.0,"2021-11-24 01:10:44.893364","","","","","","",""
3.0,0.05404896289110184,0.00036819657495441773,"train",4080.0,"2021-11-24 01:10:54.925003","","","","","","",""
3.0,0.07512655109167099,0.0003708764678596317,"train",4100.0,"2021-11-24 01:11:04.204357","","","","","","",""
3.0,0.08192906528711319,0.00037356654030891293,"train",4120.0,"2021-11-24 01:11:13.544795","","","","","","",""
3.0,0.06704594194889069,0.0003762667513775148,"train",4140.0,"2021-11-24 01:11:22.878523","","","","","","",""
3.0,0.048508282750844955,0.0003789770599864498,"train",4160.0,"2021-11-24 01:11:32.807440","","","","","","",""
3.0,0.07774756848812103,0.000381697424903113,"train",4180.0,"2021-11-24 01:11:42.084339","","","","","","",""
3.0,0.05311790481209755,0.0003844278047419108,"train",4200.0,"2021-11-24 01:11:51.431505","","","","","","",""
3.0,0.05682741850614548,0.0003871681579648903,"train",4220.0,"2021-11-24 01:12:00.706292","","","","","","",""
3.0,0.056043196469545364,0.0003899184428823709,"train",4240.0,"2021-11-24 01:12:10.720085","","","","","","",""
3.0,0.08199356496334076,0.0003926786176535783,"train",4260.0,"2021-11-24 01:12:20.054264","","","","","","",""
3.0,0.04965280741453171,0.0003954486402872818,"train",4280.0,"2021-11-24 01:12:29.378936","","","","","","",""
3.0,"","","train",4296.0,"2021-11-24 01:16:57.912035",0.5702976060539912,0.5693870580767536,0.946861684483423,0.5559271437308176,0.42135639783296785,0.43771534595712536,0.2887895624027283
3.0,"","","val",4296.0,"2021-11-24 01:18:06.069580",0.560825698712745,0.5402170814337915,0.9382129712030979,0.541116252590635,0.40960675067204816,0.42394722630969484,0.2754397679136026
4.0,0.041090939193964005,0.0003982284686424324,"train",4300.0,"2021-11-24 01:18:10.467644","","","","","","",""
4.0,0.06031690537929535,0.0004010180604288045,"train",4320.0,"2021-11-24 01:18:20.670196","","","","","","",""
4.0,0.049199581146240234,0.00040381737320763873,"train",4340.0,"2021-11-24 01:18:30.039565","","","","","","",""
4.0,0.050716008991003036,0.0004066263643922878,"train",4360.0,"2021-11-24 01:18:39.357016","","","","","","",""
4.0,0.048477716743946075,0.0004094449912488646,"train",4380.0,"2021-11-24 01:18:48.794656","","","","","","",""
4.0,0.07469004392623901,0.0004122732108968923,"train",4400.0,"2021-11-24 01:18:58.738878","","","","","","",""
4.0,0.04427897557616234,0.0004151109803099558,"train",4420.0,"2021-11-24 01:19:08.057527","","","","","","",""
4.0,0.055649612098932266,0.00041795825631635764,"train",4440.0,"2021-11-24 01:19:17.500912","","","","","","",""
4.0,0.08535394817590714,0.0004208149955997739,"train",4460.0,"2021-11-24 01:19:26.810822","","","","","","",""
4.0,0.05941513925790787,0.0004236811546999141,"train",4480.0,"2021-11-24 01:19:36.796545","","","","","","",""
4.0,0.04345318675041199,0.0004265566900131805,"train",4500.0,"2021-11-24 01:19:46.159034","","","","","","",""
4.0,0.043356455862522125,0.0004294415577933337,"train",4520.0,"2021-11-24 01:19:55.529808","","","","","","",""
4.0,0.08072586357593536,0.00043233571415215717,"train",4540.0,"2021-11-24 01:20:05.470404","","","","","","",""
4.0,0.059810105711221695,0.0004352391150601242,"train",4560.0,"2021-11-24 01:20:14.787942","","","","","","",""
4.0,0.060580119490623474,0.0004381517163470684,"train",4580.0,"2021-11-24 01:20:24.075909","","","","","","",""
4.0,0.05367419123649597,0.00044107347370285683,"train",4600.0,"2021-11-24 01:20:33.314820","","","","","","",""
4.0,0.07217743247747421,0.00044400434267806194,"train",4620.0,"2021-11-24 01:20:43.234918","","","","","","",""
4.0,0.04466842859983444,0.00044694427868463907,"train",4640.0,"2021-11-24 01:20:52.553309","","","","","","",""
4.0,0.06512496620416641,0.00044989323699660467,"train",4660.0,"2021-11-24 01:21:01.868739","","","","","","",""
4.0,0.08456162363290787,0.0004528511727507165,"train",4680.0,"2021-11-24 01:21:11.869553","","","","","","",""
4.0,0.05725906044244766,0.00045581804094715645,"train",4700.0,"2021-11-24 01:21:21.178170","","","","","","",""
4.0,0.06140163540840149,0.00045879379645021425,"train",4720.0,"2021-11-24 01:21:30.451461","","","","","","",""
4.0,0.08344247192144394,0.0004617783939889759,"train",4740.0,"2021-11-24 01:21:39.729905","","","","","","",""
4.0,0.04526006802916527,0.0004647717881580103,"train",4760.0,"2021-11-24 01:21:49.672401","","","","","","",""
4.0,0.068740613758564,0.0004677739334180617,"train",4780.0,"2021-11-24 01:21:59.042498","","","","","","",""
4.0,0.05264607444405556,0.00047078478409674144,"train",4800.0,"2021-11-24 01:22:08.321629","","","","","","",""
4.0,0.047560665756464005,0.00047380429438922305,"train",4820.0,"2021-11-24 01:22:17.630507","","","","","","",""
4.0,0.05091816931962967,0.00047683241835893946,"train",4840.0,"2021-11-24 01:22:27.709992","","","","","","",""
4.0,0.05107296630740166,0.0004798691099382815,"train",4860.0,"2021-11-24 01:22:37.042241","","","","","","",""
4.0,0.050342269241809845,0.0004829143229292986,"train",4880.0,"2021-11-24 01:22:46.395510","","","","","","",""
4.0,0.04104715585708618,0.0004859680110044023,"train",4900.0,"2021-11-24 01:22:56.314332","","","","","","",""
4.0,0.047944001853466034,0.0004890301277070699,"train",4920.0,"2021-11-24 01:23:05.567191","","","","","","",""
4.0,0.06253372132778168,0.0004921006264525525,"train",4940.0,"2021-11-24 01:23:14.874750","","","","","","",""
4.0,0.06867625564336777,0.0004951794605285824,"train",4960.0,"2021-11-24 01:23:24.221316","","","","","","",""
4.0,0.07254915684461594,0.0004982665830960853,"train",4980.0,"2021-11-24 01:23:34.213682","","","","","","",""
4.0,0.05259144678711891,0.0005013619471898913,"train",5000.0,"2021-11-24 01:23:43.569210","","","","","","",""
4.0,0.06350000947713852,0.0005044655057194504,"train",5020.0,"2021-11-24 01:23:52.870312","","","","","","",""
4.0,0.048498690128326416,0.0005075772114695486,"train",5040.0,"2021-11-24 01:24:02.752015","","","","","","",""
4.0,0.04701489955186844,0.0005106970171010257,"train",5060.0,"2021-11-24 01:24:12.048036","","","","","","",""
4.0,0.06375198066234589,0.0005138248751514966,"train",5080.0,"2021-11-24 01:24:21.342047","","","","","","",""
4.0,0.03993130475282669,0.0005169607380360731,"train",5100.0,"2021-11-24 01:24:30.677487","","","","","","",""
4.0,0.06393016874790192,0.000520104558048086,"train",5120.0,"2021-11-24 01:24:40.645871","","","","","","",""
4.0,0.0429534837603569,0.0005232562873598136,"train",5140.0,"2021-11-24 01:24:49.937176","","","","","","",""
4.0,0.06907389312982559,0.0005264158780232072,"train",5160.0,"2021-11-24 01:24:59.206938","","","","","","",""
4.0,0.06283018738031387,0.0005295832819706228,"train",5180.0,"2021-11-24 01:25:08.511522","","","","","","",""
4.0,0.04505905136466026,0.0005327584510155488,"train",5200.0,"2021-11-24 01:25:18.441263","","","","","","",""
4.0,0.051600027829408646,0.000535941336853343,"train",5220.0,"2021-11-24 01:25:27.725636","","","","","","",""
4.0,0.06276064366102219,0.0005391318910619655,"train",5240.0,"2021-11-24 01:25:37.015626","","","","","","",""
4.0,0.08228098601102829,0.0005423300651027144,"train",5260.0,"2021-11-24 01:25:46.946310","","","","","","",""
4.0,0.06354812532663345,0.0005455358103209663,"train",5280.0,"2021-11-24 01:25:56.237136","","","","","","",""
4.0,0.04570792615413666,0.0005487490779469157,"train",5300.0,"2021-11-24 01:26:05.556851","","","","","","",""
4.0,0.057384051382541656,0.000551969819096316,"train",5320.0,"2021-11-24 01:26:14.904289","","","","","","",""
4.0,0.054873861372470856,0.0005551979847712252,"train",5340.0,"2021-11-24 01:26:24.880330","","","","","","",""
4.0,0.034532416611909866,0.0005584335258607489,"train",5360.0,"2021-11-24 01:26:34.186053","","","","","","",""
4.0,"","","train",5370.0,"2021-11-24 01:30:59.992582",0.569730044386233,0.5920214157348385,0.9517164452419267,0.5584033368701634,0.4559095128460402,0.46915175288444705,0.3086644604596993
4.0,"","","val",5370.0,"2021-11-24 01:32:07.539855",0.5560709729792416,0.5577319299391283,0.9400514477474997,0.5371741866733775,0.4362885076744783,0.4484922258130787,0.2897912390088172
5.0,0.032187581062316895,0.0005616763931417894,"train",5380.0,"2021-11-24 01:32:14.821088","","","","","","",""
5.0,0.05051276087760925,0.0005649265372797939,"train",5400.0,"2021-11-24 01:32:25.161528","","","","","","",""
5.0,0.0651850551366806,0.0005681839088295046,"train",5420.0,"2021-11-24 01:32:34.541737","","","","","","",""
5.0,0.07774864882230759,0.0005714484582357109,"train",5440.0,"2021-11-24 01:32:43.945400","","","","","","",""
5.0,0.06652690470218658,0.0005747201358340048,"train",5460.0,"2021-11-24 01:32:54.107744","","","","","","",""
5.0,0.04754135012626648,0.0005779988918515344,"train",5480.0,"2021-11-24 01:33:03.645789","","","","","","",""
5.0,0.05217962712049484,0.0005812846764077623,"train",5500.0,"2021-11-24 01:33:13.221662","","","","","","",""
5.0,0.040841396898031235,0.0005845774395152243,"train",5520.0,"2021-11-24 01:33:23.483967","","","","","","",""
5.0,0.055411092936992645,0.0005878771310802895,"train",5540.0,"2021-11-24 01:33:33.054592","","","","","","",""
5.0,0.0636955052614212,0.0005911837009039229,"train",5560.0,"2021-11-24 01:33:42.524819","","","","","","",""
5.0,0.08936570584774017,0.0005944970986824485,"train",5580.0,"2021-11-24 01:33:52.062416","","","","","","",""
5.0,0.05119132250547409,0.000597817274008315,"train",5600.0,"2021-11-24 01:34:02.226775","","","","","","",""
5.0,0.04891886189579964,0.0006011441763708635,"train",5620.0,"2021-11-24 01:34:11.767172","","","","","","",""
5.0,0.06004553660750389,0.0006044777551570929,"train",5640.0,"2021-11-24 01:34:21.411421","","","","","","",""
5.0,0.04065195471048355,0.000607817959652434,"train",5660.0,"2021-11-24 01:34:31.573124","","","","","","",""
5.0,0.05592174082994461,0.0006111647390415189,"train",5680.0,"2021-11-24 01:34:41.133309","","","","","","",""
5.0,0.04751502722501755,0.0006145180424089525,"train",5700.0,"2021-11-24 01:34:50.578186","","","","","","",""
5.0,0.034965693950653076,0.0006178778187400902,"train",5720.0,"2021-11-24 01:35:00.871896","","","","","","",""
5.0,0.07016359269618988,0.0006212440169218129,"train",5740.0,"2021-11-24 01:35:10.504973","","","","","","",""
5.0,0.07527323067188263,0.0006246165857433027,"train",5760.0,"2021-11-24 01:35:20.058937","","","","","","",""
5.0,0.041431739926338196,0.0006279954738968251,"train",5780.0,"2021-11-24 01:35:30.177209","","","","","","",""
5.0,0.06873271614313126,0.0006313806299785075,"train",5800.0,"2021-11-24 01:35:39.682436","","","","","","",""
5.0,0.05796514451503754,0.0006347720024891209,"train",5820.0,"2021-11-24 01:35:49.227624","","","","","","",""
5.0,0.04955332726240158,0.0006381695398348657,"train",5840.0,"2021-11-24 01:35:59.301838","","","","","","",""
5.0,0.055827632546424866,0.0006415731903281542,"train",5860.0,"2021-11-24 01:36:08.684783","","","","","","",""
5.0,0.0389883816242218,0.0006449829021883979,"train",5880.0,"2021-11-24 01:36:18.004081","","","","","","",""
5.0,0.07919735461473465,0.0006483986235427956,"train",5900.0,"2021-11-24 01:36:27.971154","","","","","","",""
5.0,0.07401140034198761,0.0006518203024271213,"train",5920.0,"2021-11-24 01:36:37.327649","","","","","","",""
5.0,0.06512752920389175,0.0006552478867865169,"train",5940.0,"2021-11-24 01:36:46.631049","","","","","","",""
5.0,0.07318294793367386,0.0006586813244762815,"train",5960.0,"2021-11-24 01:36:56.676311","","","","","","",""
5.0,0.054094232618808746,0.0006621205632626672,"train",5980.0,"2021-11-24 01:37:06.009032","","","","","","",""
5.0,0.07352107018232346,0.0006655655508236717,"train",6000.0,"2021-11-24 01:37:15.306613","","","","","","",""
5.0,0.04835032299160957,0.0006690162347498356,"train",6020.0,"2021-11-24 01:37:24.558783","","","","","","",""
5.0,0.05442862585186958,0.0006724725625450389,"train",6040.0,"2021-11-24 01:37:34.598401","","","","","","",""
5.0,0.05180796608328819,0.0006759344816273003,"train",6060.0,"2021-11-24 01:37:43.992351","","","","","","",""
5.0,0.07018311321735382,0.0006794019393295771,"train",6080.0,"2021-11-24 01:37:53.419127","","","","","","",""
5.0,0.044129110872745514,0.0006828748829005654,"train",6100.0,"2021-11-24 01:38:03.416418","","","","","","",""
5.0,0.048328280448913574,0.0006863532595055041,"train",6120.0,"2021-11-24 01:38:12.742507","","","","","","",""
5.0,0.06007269024848938,0.0006898370162269777,"train",6140.0,"2021-11-24 01:38:22.062087","","","","","","",""
5.0,0.07014413177967072,0.0006933261000657217,"train",6160.0,"2021-11-24 01:38:32.118891","","","","","","",""
5.0,0.054885152727365494,0.000696820457941429,"train",6180.0,"2021-11-24 01:38:41.433522","","","","","","",""
5.0,0.05550951510667801,0.000700320036693557,"train",6200.0,"2021-11-24 01:38:50.783580","","","","","","",""
5.0,0.05704507604241371,0.0007038247830821358,"train",6220.0,"2021-11-24 01:39:00.731616","","","","","","",""
5.0,0.04397381842136383,0.0007073346437885815,"train",6240.0,"2021-11-24 01:39:10.078319","","","","","","",""
5.0,0.05859259143471718,0.000710849565416502,"train",6260.0,"2021-11-24 01:39:19.506367","","","","","","",""
5.0,0.04944043979048729,0.0007143694944925134,"train",6280.0,"2021-11-24 01:39:29.457113","","","","","","",""
5.0,0.05023400858044624,0.0007178943774670524,"train",6300.0,"2021-11-24 01:39:38.825385","","","","","","",""
5.0,0.04727591201663017,0.0007214241607151901,"train",6320.0,"2021-11-24 01:39:48.189852","","","","","","",""
5.0,0.03669317066669464,0.000724958790537449,"train",6340.0,"2021-11-24 01:39:58.266282","","","","","","",""
5.0,0.05050666630268097,0.0007284982131606195,"train",6360.0,"2021-11-24 01:40:07.578326","","","","","","",""
5.0,0.047743506729602814,0.0007320423747385781,"train",6380.0,"2021-11-24 01:40:16.913783","","","","","","",""
5.0,0.04486870765686035,0.0007355912213531054,"train",6400.0,"2021-11-24 01:40:26.264844","","","","","","",""
5.0,0.05254875868558884,0.000739144699014708,"train",6420.0,"2021-11-24 01:40:36.223121","","","","","","",""
5.0,0.07205162942409515,0.0007427027536634401,"train",6440.0,"2021-11-24 01:40:45.546023","","","","","","",""
5.0,"","","train",6444.0,"2021-11-24 01:45:07.200166",0.5872225860438042,0.6176257523341191,0.9586532145712122,0.6167955947262527,0.4961190431128883,0.5106866697882384,0.33646872597517274
5.0,"","","val",6444.0,"2021-11-24 01:46:14.609261",0.5661602690478952,0.5782585070017136,0.9486009232953136,0.5902624007563826,0.46741444790925424,0.4801432136510523,0.3082181997976796
6.0,0.04514625668525696,0.0007462653311697235,"train",6460.0,"2021-11-24 01:46:24.782572","","","","","","",""
6.0,0.0889086052775383,0.0007498323773351733,"train",6480.0,"2021-11-24 01:46:35.006505","","","","","","",""
6.0,0.07992592453956604,0.0007534038378934223,"train",6500.0,"2021-11-24 01:46:44.466092","","","","","","",""
6.0,0.06997498869895935,0.0007569796585109453,"train",6520.0,"2021-11-24 01:46:54.603616","","","","","","",""
6.0,0.06729012727737427,0.0007605597847878862,"train",6540.0,"2021-11-24 01:47:03.985292","","","","","","",""
6.0,0.047298841178417206,0.0007641441622588871,"train",6560.0,"2021-11-24 01:47:13.379522","","","","","","",""
6.0,0.06470557302236557,0.0007677327363939143,"train",6580.0,"2021-11-24 01:47:23.410017","","","","","","",""
6.0,0.05239157751202583,0.0007713254525990895,"train",6600.0,"2021-11-24 01:47:32.797034","","","","","","",""
6.0,0.04592373967170715,0.0007749222562175211,"train",6620.0,"2021-11-24 01:47:42.275585","","","","","","",""
6.0,0.05698816850781441,0.000778523092530133,"train",6640.0,"2021-11-24 01:47:52.321529","","","","","","",""
6.0,0.07195770740509033,0.0007821279067564996,"train",6660.0,"2021-11-24 01:48:01.705958","","","","","","",""
6.0,0.0730418711900711,0.0007857366440556786,"train",6680.0,"2021-11-24 01:48:11.006958","","","","","","",""
6.0,0.047177013009786606,0.0007893492495270442,"train",6700.0,"2021-11-24 01:48:21.100232","","","","","","",""
6.0,0.06812864542007446,0.0007929656682111239,"train",6720.0,"2021-11-24 01:48:30.450000","","","","","","",""
6.0,0.05891692265868187,0.0007965858450904332,"train",6740.0,"2021-11-24 01:48:39.812329","","","","","","",""
6.0,0.10178431868553162,0.000800209725090314,"train",6760.0,"2021-11-24 01:48:49.941857","","","","","","",""
6.0,0.04288357496261597,0.0008038372530797706,"train",6780.0,"2021-11-24 01:48:59.270236","","","","","","",""
6.0,0.05079343542456627,0.0008074683738723109,"train",6800.0,"2021-11-24 01:49:09.347252","","","","","","",""
6.0,0.07053707540035248,0.0008111030322267832,"train",6820.0,"2021-11-24 01:49:18.711004","","","","","","",""
6.0,0.046994321048259735,0.0008147411728482187,"train",6840.0,"2021-11-24 01:49:28.157794","","","","","","",""
6.0,0.051222193986177444,0.0008183827403886721,"train",6860.0,"2021-11-24 01:49:38.145548","","","","","","",""
6.0,0.029101599007844925,0.0008220276794480633,"train",6880.0,"2021-11-24 01:49:47.465019","","","","","","",""
6.0,0.04531152546405792,0.0008256759345750203,"train",6900.0,"2021-11-24 01:49:56.832248","","","","","","",""
6.0,0.05515186861157417,0.0008293274502677234,"train",6920.0,"2021-11-24 01:50:06.968620","","","","","","",""
6.0,0.038310568779706955,0.0008329821709747486,"train",6940.0,"2021-11-24 01:50:16.362788","","","","","","",""
6.0,0.07903500646352768,0.0008366400410959136,"train",6960.0,"2021-11-24 01:50:25.816996","","","","","","",""
6.0,0.07303991913795471,0.000840301004983123,"train",6980.0,"2021-11-24 01:50:35.788348","","","","","","",""
6.0,0.06348411738872528,0.0008439650069412147,"train",7000.0,"2021-11-24 01:50:45.224265","","","","","","",""
6.0,0.05565576255321503,0.0008476319912288095,"train",7020.0,"2021-11-24 01:50:54.630906","","","","","","",""
6.0,0.04198075458407402,0.0008513019020591544,"train",7040.0,"2021-11-24 01:51:04.657156","","","","","","",""
6.0,0.04083037003874779,0.0008549746836009771,"train",7060.0,"2021-11-24 01:51:14.023613","","","","","","",""
6.0,0.06056274101138115,0.0008586502799793306,"train",7080.0,"2021-11-24 01:51:24.119867","","","","","","",""
6.0,0.052531905472278595,0.0008623286352764453,"train",7100.0,"2021-11-24 01:51:33.497347","","","","","","",""
6.0,0.0625673159956932,0.0008660096935325802,"train",7120.0,"2021-11-24 01:51:42.916433","","","","","","",""
6.0,0.04165094345808029,0.0008696933987468731,"train",7140.0,"2021-11-24 01:51:53.026417","","","","","","",""
6.0,0.07688289135694504,0.0008733796948781924,"train",7160.0,"2021-11-24 01:52:02.395837","","","","","","",""
6.0,0.060221150517463684,0.0008770685258459915,"train",7180.0,"2021-11-24 01:52:11.768573","","","","","","",""
6.0,0.04694300517439842,0.0008807598355311595,"train",7200.0,"2021-11-24 01:52:21.747893","","","","","","",""
6.0,0.04883464798331261,0.0008844535677768764,"train",7220.0,"2021-11-24 01:52:31.096224","","","","","","",""
6.0,0.05953585356473923,0.0008881496663894681,"train",7240.0,"2021-11-24 01:52:40.380070","","","","","","",""
6.0,0.055857788771390915,0.0008918480751392592,"train",7260.0,"2021-11-24 01:52:50.417554","","","","","","",""
6.0,0.054261211305856705,0.00089554873776143,"train",7280.0,"2021-11-24 01:52:59.763924","","","","","","",""
6.0,0.05050475895404816,0.0008992515979568724,"train",7300.0,"2021-11-24 01:53:09.086313","","","","","","",""
6.0,0.04258224740624428,0.0009029565993930457,"train",7320.0,"2021-11-24 01:53:19.074299","","","","","","",""
6.0,0.08465132862329483,0.0009066636857048339,"train",7340.0,"2021-11-24 01:53:28.477380","","","","","","",""
6.0,0.07773371785879135,0.0009103728004954039,"train",7360.0,"2021-11-24 01:53:38.623815","","","","","","",""
6.0,0.07340114563703537,0.0009140838873370617,"train",7380.0,"2021-11-24 01:53:48.110683","","","","","","",""
6.0,0.050213541835546494,0.0009177968897721136,"train",7400.0,"2021-11-24 01:53:57.639380","","","","","","",""
6.0,0.06992336362600327,0.0009215117513137218,"train",7420.0,"2021-11-24 01:54:07.670591","","","","","","",""
6.0,0.05125747621059418,0.0009252284154467663,"train",7440.0,"2021-11-24 01:54:17.028445","","","","","","",""
6.0,0.07350815087556839,0.0009289468256287042,"train",7460.0,"2021-11-24 01:54:26.309148","","","","","","",""
6.0,0.04063623026013374,0.0009326669252904287,"train",7480.0,"2021-11-24 01:54:36.426448","","","","","","",""
6.0,0.03984057903289795,0.0009363886578371307,"train",7500.0,"2021-11-24 01:54:45.779335","","","","","","",""
6.0,"","","train",7518.0,"2021-11-24 01:59:14.815576",0.6096776540784399,0.6331312933119817,0.9604062061308858,0.6299630556613204,0.51702554528443,0.5413984795222837,0.35421848002608997
6.0,"","","val",7518.0,"2021-11-24 02:00:22.280850",0.5901078510959062,0.5918657798024222,0.9501340156547738,0.6043608019674508,0.4892113060666846,0.511824081377697,0.32729495235202627
7.0,0.05457305163145065,0.0009401119666491604,"train",7520.0,"2021-11-24 02:00:25.731335","","","","","","",""
7.0,0.06441124528646469,0.0009438367950828869,"train",7540.0,"2021-11-24 02:00:36.181657","","","","","","",""
7.0,0.06591847538948059,0.000947563086471561,"train",7560.0,"2021-11-24 02:00:45.740983","","","","","","",""
7.0,0.04317620396614075,0.0009512907841261783,"train",7580.0,"2021-11-24 02:00:55.848218","","","","","","",""
7.0,0.04919496923685074,0.0009550198313363391,"train",7600.0,"2021-11-24 02:01:05.482689","","","","","","",""
7.0,0.08453530073165894,0.0009587501713711128,"train",7620.0,"2021-11-24 02:01:15.118089","","","","","","",""
7.0,0.03978772461414337,0.0009624817474799023,"train",7640.0,"2021-11-24 02:01:25.220639","","","","","","",""
7.0,0.05363868176937103,0.0009662145028933038,"train",7660.0,"2021-11-24 02:01:34.731723","","","","","","",""
7.0,0.06010069698095322,0.0009699483808239733,"train",7680.0,"2021-11-24 02:01:44.931556","","","","","","",""
7.0,0.037455860525369644,0.0009736833244674895,"train",7700.0,"2021-11-24 02:01:54.408285","","","","","","",""
7.0,0.048827897757291794,0.0009774192770032192,"train",7720.0,"2021-11-24 02:02:03.855737","","","","","","",""
7.0,0.04302844777703285,0.0009811561815951785,"train",7740.0,"2021-11-24 02:02:14.041126","","","","","","",""
7.0,0.04875251278281212,0.0009848939813929015,"train",7760.0,"2021-11-24 02:02:23.511738","","","","","","",""
7.0,0.0418970063328743,0.0009886326195323026,"train",7780.0,"2021-11-24 02:02:33.634642","","","","","","",""
7.0,0.06376216560602188,0.0009923720391365428,"train",7800.0,"2021-11-24 02:02:43.146198","","","","","","",""
7.0,0.0551566444337368,0.000996112183316893,"train",7820.0,"2021-11-24 02:02:52.635607","","","","","","",""
7.0,0.0625130906701088,0.0009998529951736029,"train",7840.0,"2021-11-24 02:03:02.836713","","","","","","",""
7.0,0.05269429460167885,0.0010035944177967638,"train",7860.0,"2021-11-24 02:03:12.351263","","","","","","",""
7.0,0.0317855030298233,0.0010073363942671744,"train",7880.0,"2021-11-24 02:03:21.856095","","","","","","",""
7.0,0.08562548458576202,0.0010110788676572094,"train",7900.0,"2021-11-24 02:03:31.989001","","","","","","",""
7.0,0.054529137909412384,0.0010148217810316822,"train",7920.0,"2021-11-24 02:03:41.548661","","","","","","",""
7.0,0.057588230818510056,0.0010185650774487127,"train",7940.0,"2021-11-24 02:03:51.682906","","","","","","",""
7.0,0.048490867018699646,0.0010223086999605951,"train",7960.0,"2021-11-24 02:04:01.165434","","","","","","",""
7.0,0.04976619407534599,0.0010260525916146609,"train",7980.0,"2021-11-24 02:04:10.640613","","","","","","",""
7.0,0.05275452882051468,0.0010297966954541469,"train",8000.0,"2021-11-24 02:04:20.854879","","","","","","",""
7.0,0.03637700155377388,0.001033540954519064,"train",8020.0,"2021-11-24 02:04:30.316583","","","","","","",""
7.0,0.04059697315096855,0.0010372853118470592,"train",8040.0,"2021-11-24 02:04:40.424807","","","","","","",""
7.0,0.047492608428001404,0.0010410297104742857,"train",8060.0,"2021-11-24 02:04:49.936431","","","","","","",""
7.0,0.07073010504245758,0.0010447740934362692,"train",8080.0,"2021-11-24 02:04:59.446029","","","","","","",""
7.0,0.042631831020116806,0.0010485184037687715,"train",8100.0,"2021-11-24 02:05:09.478482","","","","","","",""
7.0,0.05595140531659126,0.0010522625845086615,"train",8120.0,"2021-11-24 02:05:18.943375","","","","","","",""
7.0,0.051467686891555786,0.0010560065786947796,"train",8140.0,"2021-11-24 02:05:29.097516","","","","","","",""
7.0,0.06033358722925186,0.0010597503293688013,"train",8160.0,"2021-11-24 02:05:38.699349","","","","","","",""
7.0,0.06689518690109253,0.001063493779576111,"train",8180.0,"2021-11-24 02:05:48.252899","","","","","","",""
7.0,0.05027495697140694,0.0010672368723666614,"train",8200.0,"2021-11-24 02:05:58.424031","","","","","","",""
7.0,0.0857696533203125,0.0010709795507958426,"train",8220.0,"2021-11-24 02:06:07.903886","","","","","","",""
7.0,0.07036283612251282,0.0010747217579253504,"train",8240.0,"2021-11-24 02:06:18.058590","","","","","","",""
7.0,0.06576143950223923,0.0010784634368240487,"train",8260.0,"2021-11-24 02:06:27.559142","","","","","","",""
7.0,0.039900895208120346,0.0010822045305688382,"train",8280.0,"2021-11-24 02:06:37.042422","","","","","","",""
7.0,0.06568527221679688,0.0010859449822455227,"train",8300.0,"2021-11-24 02:06:47.229623","","","","","","",""
7.0,0.03678504750132561,0.001089684734949672,"train",8320.0,"2021-11-24 02:06:56.655149","","","","","","",""
7.0,0.03763576224446297,0.00109342373178749,"train",8340.0,"2021-11-24 02:07:06.116687","","","","","","",""
7.0,0.06036631017923355,0.0010971619158766821,"train",8360.0,"2021-11-24 02:07:16.218697","","","","","","",""
7.0,0.08163618296384811,0.0011008992303473152,"train",8380.0,"2021-11-24 02:07:25.719624","","","","","","",""
7.0,0.05192669853568077,0.001104635618342687,"train",8400.0,"2021-11-24 02:07:35.843058","","","","","","",""
7.0,0.07573864609003067,0.001108371023020191,"train",8420.0,"2021-11-24 02:07:45.280405","","","","","","",""
7.0,0.07340256124734879,0.0011121053875521787,"train",8440.0,"2021-11-24 02:07:54.733280","","","","","","",""
7.0,0.05285241827368736,0.0011158386551268257,"train",8460.0,"2021-11-24 02:08:04.817993","","","","","","",""
7.0,0.06851784139871597,0.0011195707689489972,"train",8480.0,"2021-11-24 02:08:14.250682","","","","","","",""
7.0,0.06438107043504715,0.0011233016722411097,"train",8500.0,"2021-11-24 02:08:24.336124","","","","","","",""
7.0,0.06186513975262642,0.0011270313082439951,"train",8520.0,"2021-11-24 02:08:33.786847","","","","","","",""
7.0,0.04665502905845642,0.001130759620217767,"train",8540.0,"2021-11-24 02:08:43.219640","","","","","","",""
7.0,0.04027089849114418,0.0011344865514426794,"train",8560.0,"2021-11-24 02:08:53.722507","","","","","","",""
7.0,0.0615936815738678,0.0011382120452199938,"train",8580.0,"2021-11-24 02:09:03.126936","","","","","","",""
7.0,"","","train",8592.0,"2021-11-24 02:13:32.150524",0.6012515462417231,0.6405838815827417,0.9630386846648796,0.6544960398291895,0.5394548609764879,0.5629849893144674,0.3641159795968654
7.0,"","","val",8592.0,"2021-11-24 02:14:39.925690",0.5771773164791836,0.5974418467987961,0.9529925396137038,0.6238122561249324,0.51042431110029,0.5344195122006332,0.336268149969782
8.0,0.045554354786872864,0.001141936044872839,"train",8600.0,"2021-11-24 02:14:47.129071","","","","","","",""
8.0,0.06078144535422325,0.0011456584937470744,"train",8620.0,"2021-11-24 02:14:56.756731","","","","","","",""
8.0,0.04768448695540428,0.0011493793352121522,"train",8640.0,"2021-11-24 02:15:06.181056","","","","","","",""
8.0,0.04841560125350952,0.0011530985126619784,"train",8660.0,"2021-11-24 02:15:16.257368","","","","","","",""
8.0,0.02984006702899933,0.001156815969515773,"train",8680.0,"2021-11-24 02:15:25.721291","","","","","","",""
8.0,0.06263277679681778,0.001160531649218934,"train",8700.0,"2021-11-24 02:15:35.755516","","","","","","",""
8.0,0.06951147317886353,0.001164245495243894,"train",8720.0,"2021-11-24 02:15:45.258499","","","","","","",""
8.0,0.06037573516368866,0.0011679574510909817,"train",8740.0,"2021-11-24 02:15:55.317868","","","","","","",""
8.0,0.055209867656230927,0.0011716674602892828,"train",8760.0,"2021-11-24 02:16:04.688962","","","","","","",""
8.0,0.03966215252876282,0.0011753754663974968,"train",8780.0,"2021-11-24 02:16:14.651872","","","","","","",""
8.0,0.051953453570604324,0.0011790814130047968,"train",8800.0,"2021-11-24 02:16:24.048701","","","","","","",""
8.0,0.05890312045812607,0.001182785243731688,"train",8820.0,"2021-11-24 02:16:33.471644","","","","","","",""
8.0,0.049155160784721375,0.0011864869022308656,"train",8840.0,"2021-11-24 02:16:43.521588","","","","","","",""
8.0,0.035657938569784164,0.0011901863321880693,"train",8860.0,"2021-11-24 02:16:52.852565","","","","","","",""
8.0,0.060752905905246735,0.001193883477322945,"train",8880.0,"2021-11-24 02:17:02.838626","","","","","","",""
8.0,0.05842730030417442,0.0011975782813898961,"train",8900.0,"2021-11-24 02:17:12.234898","","","","","","",""
8.0,0.0483475923538208,0.0012012706881789417,"train",8920.0,"2021-11-24 02:17:22.203084","","","","","","",""
8.0,0.037323564291000366,0.001204960641516572,"train",8940.0,"2021-11-24 02:17:31.705958","","","","","","",""
8.0,0.035690613090991974,0.0012086480852666014,"train",8960.0,"2021-11-24 02:17:41.092529","","","","","","",""
8.0,0.04184285178780556,0.0012123329633310235,"train",8980.0,"2021-11-24 02:17:51.055922","","","","","","",""
8.0,0.05231548473238945,0.0012160152196508643,"train",9000.0,"2021-11-24 02:18:00.487165","","","","","","",""
8.0,0.05662154406309128,0.0012196947982070355,"train",9020.0,"2021-11-24 02:18:10.598997","","","","","","",""
8.0,0.0506901778280735,0.0012233716430211856,"train",9040.0,"2021-11-24 02:18:19.983928","","","","","","",""
8.0,0.07274376600980759,0.001227045698156553,"train",9060.0,"2021-11-24 02:18:30.028186","","","","","","",""
8.0,0.05609964579343796,0.0012307169077188148,"train",9080.0,"2021-11-24 02:18:39.505504","","","","","","",""
8.0,0.052924249321222305,0.0012343852158569401,"train",9100.0,"2021-11-24 02:18:49.004649","","","","","","",""
8.0,0.04049262776970863,0.0012380505667640377,"train",9120.0,"2021-11-24 02:18:59.073448","","","","","","",""
8.0,0.05552676320075989,0.0012417129046782046,"train",9140.0,"2021-11-24 02:19:08.468404","","","","","","",""
8.0,0.04073301702737808,0.0012453721738833758,"train",9160.0,"2021-11-24 02:19:18.492513","","","","","","",""
8.0,0.05542267486453056,0.001249028318710172,"train",9180.0,"2021-11-24 02:19:27.865749","","","","","","",""
8.0,0.03701251000165939,0.0012526812835367447,"train",9200.0,"2021-11-24 02:19:37.843270","","","","","","",""
8.0,0.04494920372962952,0.0012563310127896242,"train",9220.0,"2021-11-24 02:19:47.199527","","","","","","",""
8.0,0.05823400989174843,0.0012599774509445645,"train",9240.0,"2021-11-24 02:19:57.211717","","","","","","",""
8.0,0.06610649079084396,0.0012636205425273874,"train",9260.0,"2021-11-24 02:20:06.668635","","","","","","",""
8.0,0.06943806260824203,0.0012672602321148268,"train",9280.0,"2021-11-24 02:20:16.089657","","","","","","",""
8.0,0.06195058673620224,0.0012708964643353732,"train",9300.0,"2021-11-24 02:20:26.123415","","","","","","",""
8.0,0.052761513739824295,0.001274529183870114,"train",9320.0,"2021-11-24 02:20:35.553529","","","","","","",""
8.0,0.04946759343147278,0.0012781583354535748,"train",9340.0,"2021-11-24 02:20:45.562691","","","","","","",""
8.0,0.07383352518081665,0.0012817838638745646,"train",9360.0,"2021-11-24 02:20:54.936678","","","","","","",""
8.0,0.06796832382678986,0.001285405713977009,"train",9380.0,"2021-11-24 02:21:05.123375","","","","","","",""
8.0,0.07938047498464584,0.0012890238306607947,"train",9400.0,"2021-11-24 02:21:14.492755","","","","","","",""
8.0,0.05460803955793381,0.001292638158882606,"train",9420.0,"2021-11-24 02:21:23.895695","","","","","","",""
8.0,0.053473640233278275,0.0012962486436567603,"train",9440.0,"2021-11-24 02:21:33.893592","","","","","","",""
8.0,0.06541021168231964,0.0012998552300560484,"train",9460.0,"2021-11-24 02:21:43.282135","","","","","","",""
8.0,0.07828480005264282,0.0013034578632125668,"train",9480.0,"2021-11-24 02:21:53.484907","","","","","","",""
8.0,0.043718814849853516,0.0013070564883185534,"train",9500.0,"2021-11-24 02:22:02.930928","","","","","","",""
8.0,0.05808199569582939,0.001310651050627223,"train",9520.0,"2021-11-24 02:22:12.893316","","","","","","",""
8.0,0.06209143251180649,0.001314241495453598,"train",9540.0,"2021-11-24 02:22:22.329230","","","","","","",""
8.0,0.06194435805082321,0.00131782776817534,"train",9560.0,"2021-11-24 02:22:31.766454","","","","","","",""
8.0,0.03512527793645859,0.0013214098142335837,"train",9580.0,"2021-11-24 02:22:41.746598","","","","","","",""
8.0,0.04216374456882477,0.001324987579133764,"train",9600.0,"2021-11-24 02:22:51.116809","","","","","","",""
8.0,0.07443864643573761,0.0013285610084464463,"train",9620.0,"2021-11-24 02:23:01.178365","","","","","","",""
8.0,0.08487330377101898,0.001332130047808155,"train",9640.0,"2021-11-24 02:23:10.515679","","","","","","",""
8.0,0.035227902233600616,0.001335694642922199,"train",9660.0,"2021-11-24 02:23:20.502111","","","","","","",""
8.0,"","","train",9666.0,"2021-11-24 02:27:45.334884",0.6202575856799826,0.658745196155984,0.9669052859457217,0.6619499671939054,0.5486343706186804,0.5720473442561083,0.37719602708951516
8.0,"","","val",9666.0,"2021-11-24 02:28:53.120588",0.6006610228458773,0.6139725165878869,0.9579183859441349,0.6339663150253471,0.5176979494290846,0.5368376689852717,0.3459653405049635
9.0,0.05209947004914284,0.0013392547395594985,"train",9680.0,"2021-11-24 02:29:02.376721","","","","","","",""
9.0,0.04945094883441925,0.001342810283559412,"train",9700.0,"2021-11-24 02:29:11.837925","","","","","","",""
9.0,0.06604231894016266,0.0013463612208305564,"train",9720.0,"2021-11-24 02:29:21.198143","","","","","","",""
9.0,0.0351218581199646,0.0013499074973516321,"train",9740.0,"2021-11-24 02:29:30.638296","","","","","","",""
9.0,0.059059806168079376,0.0013534490591722464,"train",9760.0,"2021-11-24 02:29:40.103677","","","","","","",""
9.0,0.05027567967772484,0.0013569858524137305,"train",9780.0,"2021-11-24 02:29:49.441854","","","","","","",""
9.0,0.0660005509853363,0.001360517823269962,"train",9800.0,"2021-11-24 02:29:58.826756","","","","","","",""
9.0,0.03435107320547104,0.0013640449180081834,"train",9820.0,"2021-11-24 02:30:08.131645","","","","","","",""
9.0,0.08615276217460632,0.0013675670829698173,"train",9840.0,"2021-11-24 02:30:17.488869","","","","","","",""
9.0,0.07780327647924423,0.0013710842645712853,"train",9860.0,"2021-11-24 02:30:26.819570","","","","","","",""
9.0,0.04470737278461456,0.0013745964093048219,"train",9880.0,"2021-11-24 02:30:36.150435","","","","","","",""
9.0,0.037721339613199234,0.0013781034637392886,"train",9900.0,"2021-11-24 02:30:45.496400","","","","","","",""
9.0,0.04741600900888443,0.0013816053745209864,"train",9920.0,"2021-11-24 02:30:54.830840","","","","","","",""
9.0,0.04331225901842117,0.0013851020883744697,"train",9940.0,"2021-11-24 02:31:04.138779","","","","","","",""
9.0,0.04434904083609581,0.001388593552103353,"train",9960.0,"2021-11-24 02:31:13.474474","","","","","","",""
9.0,0.041199732571840286,0.0013920797125911233,"train",9980.0,"2021-11-24 02:31:22.770684","","","","","","",""
9.0,0.058706168085336685,0.001395560516801947,"train",10000.0,"2021-11-24 02:31:32.800155","","","","","","",""
9.0,0.06621811538934708,0.0013990359117814774,"train",10020.0,"2021-11-24 02:31:42.138446","","","","","","",""
9.0,0.07267001271247864,0.0014025058446576583,"train",10040.0,"2021-11-24 02:31:51.453513","","","","","","",""
9.0,0.04231956601142883,0.0014059702626415317,"train",10060.0,"2021-11-24 02:32:00.785918","","","","","","",""
9.0,0.05513583496212959,0.0014094291130280377,"train",10080.0,"2021-11-24 02:32:10.040363","","","","","","",""
9.0,0.0679897889494896,0.0014128823431968183,"train",10100.0,"2021-11-24 02:32:19.352181","","","","","","",""
9.0,0.06863196939229965,0.001416329900613017,"train",10120.0,"2021-11-24 02:32:28.685059","","","","","","",""
9.0,0.04402550682425499,0.0014197717328280782,"train",10140.0,"2021-11-24 02:32:37.983910","","","","","","",""
9.0,0.06370670348405838,0.0014232077874805457,"train",10160.0,"2021-11-24 02:32:47.313781","","","","","","",""
9.0,0.059618208557367325,0.0014266380122968589,"train",10180.0,"2021-11-24 02:32:56.571693","","","","","","",""
9.0,0.04759553074836731,0.0014300623550921468,"train",10200.0,"2021-11-24 02:33:05.821595","","","","","","",""
9.0,0.037557296454906464,0.0014334807637710243,"train",10220.0,"2021-11-24 02:33:15.163060","","","","","","",""
9.0,0.046500153839588165,0.0014368931863283831,"train",10240.0,"2021-11-24 02:33:24.535158","","","","","","",""
9.0,0.04543130099773407,0.0014402995708501826,"train",10260.0,"2021-11-24 02:33:33.819009","","","","","","",""
9.0,0.04563819617033005,0.0014436998655142422,"train",10280.0,"2021-11-24 02:33:43.108615","","","","","","",""
9.0,0.05132996290922165,0.0014470940185910258,"train",10300.0,"2021-11-24 02:33:52.434238","","","","","","",""
9.0,0.036286599934101105,0.001450481978444431,"train",10320.0,"2021-11-24 02:34:01.726540","","","","","","",""
9.0,0.05500245839357376,0.0014538636935325763,"train",10340.0,"2021-11-24 02:34:11.049284","","","","","","",""
9.0,0.05654161050915718,0.0014572391124085817,"train",10360.0,"2021-11-24 02:34:20.300478","","","","","","",""
9.0,0.07856057584285736,0.0014606081837213525,"train",10380.0,"2021-11-24 02:34:29.648971","","","","","","",""
9.0,0.04713212326169014,0.0014639708562163639,"train",10400.0,"2021-11-24 02:34:38.936261","","","","","","",""
9.0,0.06131734699010849,0.001467327078736435,"train",10420.0,"2021-11-24 02:34:48.185160","","","","","","",""
9.0,0.04655611142516136,0.0014706768002225108,"train",10440.0,"2021-11-24 02:34:57.541018","","","","","","",""
9.0,0.06684834510087967,0.0014740199697144392,"train",10460.0,"2021-11-24 02:35:06.841924","","","","","","",""
9.0,0.07069839537143707,0.0014773565363517442,"train",10480.0,"2021-11-24 02:35:16.898164","","","","","","",""
9.0,0.0795714482665062,0.0014806864493744007,"train",10500.0,"2021-11-24 02:35:26.230042","","","","","","",""
9.0,0.03699023276567459,0.0014840096581236072,"train",10520.0,"2021-11-24 02:35:35.577239","","","","","","",""
9.0,0.04171855375170708,0.001487326112042556,"train",10540.0,"2021-11-24 02:35:44.841190","","","","","","",""
9.0,0.03564582020044327,0.0014906357606772013,"train",10560.0,"2021-11-24 02:35:54.104342","","","","","","",""
9.0,0.040385790169239044,0.0014939385536770291,"train",10580.0,"2021-11-24 02:36:03.445767","","","","","","",""
9.0,0.06546842306852341,0.0014972344407958218,"train",10600.0,"2021-11-24 02:36:12.722192","","","","","","",""
9.0,0.06557309627532959,0.0015005233718924213,"train",10620.0,"2021-11-24 02:36:22.052652","","","","","","",""
9.0,0.06808597594499588,0.0015038052969314946,"train",10640.0,"2021-11-24 02:36:31.328706","","","","","","",""
9.0,0.05216053128242493,0.0015070801659842939,"train",10660.0,"2021-11-24 02:36:40.601051","","","","","","",""
9.0,0.06157860532402992,0.001510347929229414,"train",10680.0,"2021-11-24 02:36:49.949259","","","","","","",""
9.0,0.03934035450220108,0.0015136085369535537,"train",10700.0,"2021-11-24 02:36:59.260099","","","","","","",""
9.0,0.04990312084555626,0.0015168619395522708,"train",10720.0,"2021-11-24 02:37:08.617717","","","","","","",""
9.0,0.05213706195354462,0.0015201080875307349,"train",10740.0,"2021-11-24 02:37:17.898207","","","","","","",""
9.0,"","","train",10740.0,"2021-11-24 02:41:39.365226",0.6270828785563559,0.6702103684632795,0.9686792032868738,0.6520894109934027,0.5481753561586331,0.5744439512947128,0.37983458123310965
9.0,"","","val",10740.0,"2021-11-24 02:42:46.752523",0.6051258262785574,0.6232190209506563,0.9593617668008106,0.6219326380607039,0.5189861510395145,0.5401798937985363,0.3490317654392293
10.0,0.04955141618847847,0.0015233469315044834,"train",10760.0,"2021-11-24 02:42:58.818066","","","","","","",""
10.0,0.05450586974620819,0.0015265784222001709,"train",10780.0,"2021-11-24 02:43:08.247138","","","","","","",""
10.0,0.07677462697029114,0.0015298025104563185,"train",10800.0,"2021-11-24 02:43:17.538049","","","","","","",""
10.0,0.04439745098352432,0.001533019147224064,"train",10820.0,"2021-11-24 02:43:26.848117","","","","","","",""
10.0,0.03598269447684288,0.0015362282835679054,"train",10840.0,"2021-11-24 02:43:36.113752","","","","","","",""
10.0,0.056806668639183044,0.0015394298706664469,"train",10860.0,"2021-11-24 02:43:45.471918","","","","","","",""
10.0,0.041081804782152176,0.001542623859813141,"train",10880.0,"2021-11-24 02:43:54.735045","","","","","","",""
10.0,0.043031979352235794,0.00154581020241703,"train",10900.0,"2021-11-24 02:44:04.086482","","","","","","",""
10.0,0.06883109360933304,0.0015489888500034858,"train",10920.0,"2021-11-24 02:44:13.360887","","","","","","",""
10.0,0.049369823187589645,0.0015521597542149444,"train",10940.0,"2021-11-24 02:44:23.426582","","","","","","",""
10.0,0.04288256913423538,0.0015553228668116455,"train",10960.0,"2021-11-24 02:44:32.806782","","","","","","",""
10.0,0.06564436107873917,0.0015584781396723642,"train",10980.0,"2021-11-24 02:44:42.119717","","","","","","",""
10.0,0.04216096177697182,0.0015616255247951432,"train",11000.0,"2021-11-24 02:44:51.421863","","","","","","",""
10.0,0.03680100664496422,0.0015647649742980233,"train",11020.0,"2021-11-24 02:45:00.667350","","","","","","",""
10.0,0.048134513199329376,0.0015678964404197727,"train",11040.0,"2021-11-24 02:45:09.952046","","","","","","",""
10.0,0.03250579908490181,0.0015710198755206112,"train",11060.0,"2021-11-24 02:45:19.268369","","","","","","",""
10.0,0.041563570499420166,0.0015741352320829379,"train",11080.0,"2021-11-24 02:45:28.618987","","","","","","",""
10.0,0.06822898983955383,0.0015772424627120527,"train",11100.0,"2021-11-24 02:45:37.825446","","","","","","",""
10.0,0.050931960344314575,0.0015803415201368761,"train",11120.0,"2021-11-24 02:45:47.142397","","","","","","",""
10.0,0.07137294113636017,0.001583432357210671,"train",11140.0,"2021-11-24 02:45:56.415360","","","","","","",""
10.0,0.0375850610435009,0.001586514926911758,"train",11160.0,"2021-11-24 02:46:05.640867","","","","","","",""
10.0,0.07191594690084457,0.0015895891823442313,"train",11180.0,"2021-11-24 02:46:14.919779","","","","","","",""
10.0,0.045630015432834625,0.0015926550767386717,"train",11200.0,"2021-11-24 02:46:24.196679","","","","","","",""
10.0,0.04567614570260048,0.0015957125634528599,"train",11220.0,"2021-11-24 02:46:33.494259","","","","","","",""
10.0,0.04806622490286827,0.0015987615959724836,"train",11240.0,"2021-11-24 02:46:42.820561","","","","","","",""
10.0,0.04633672535419464,0.0016018021279118457,"train",11260.0,"2021-11-24 02:46:52.192146","","","","","","",""
10.0,0.07920149713754654,0.0016048341130145728,"train",11280.0,"2021-11-24 02:47:01.523748","","","","","","",""
10.0,0.04407674819231033,0.0016078575051543145,"train",11300.0,"2021-11-24 02:47:10.785046","","","","","","",""
10.0,0.04018430784344673,0.0016108722583354478,"train",11320.0,"2021-11-24 02:47:20.068980","","","","","","",""
10.0,0.07445156574249268,0.0016138783266937777,"train",11340.0,"2021-11-24 02:47:29.422957","","","","","","",""
10.0,0.060195036232471466,0.0016168756644972322,"train",11360.0,"2021-11-24 02:47:38.751211","","","","","","",""
10.0,0.05213235691189766,0.0016198642261465587,"train",11380.0,"2021-11-24 02:47:48.709790","","","","","","",""
10.0,0.04807574301958084,0.0016228439661760208,"train",11400.0,"2021-11-24 02:47:57.996124","","","","","","",""
10.0,0.08023983240127563,0.001625814839254086,"train",11420.0,"2021-11-24 02:48:07.265226","","","","","","",""
10.0,0.05191041901707649,0.0016287768001841164,"train",11440.0,"2021-11-24 02:48:16.472957","","","","","","",""
10.0,0.0351409912109375,0.001631729803905059,"train",11460.0,"2021-11-24 02:48:25.703153","","","","","","",""
10.0,0.05080435052514076,0.0016346738054921273,"train",11480.0,"2021-11-24 02:48:35.016220","","","","","","",""
10.0,0.05377540737390518,0.001637608760157486,"train",11500.0,"2021-11-24 02:48:44.256346","","","","","","",""
10.0,0.038615673780441284,0.0016405346232509356,"train",11520.0,"2021-11-24 02:48:53.446774","","","","","","",""
10.0,0.029986344277858734,0.0016434513502605861,"train",11540.0,"2021-11-24 02:49:02.748004","","","","","","",""
10.0,0.03656942397356033,0.0016463588968135383,"train",11560.0,"2021-11-24 02:49:12.041348","","","","","","",""
10.0,0.04768192023038864,0.0016492572186765577,"train",11580.0,"2021-11-24 02:49:21.382263","","","","","","",""
10.0,0.0720033198595047,0.001652146271756747,"train",11600.0,"2021-11-24 02:49:30.658750","","","","","","",""
10.0,0.056608714163303375,0.0016550260121022172,"train",11620.0,"2021-11-24 02:49:39.900362","","","","","","",""
10.0,0.0381162092089653,0.0016578963959027562,"train",11640.0,"2021-11-24 02:49:49.160403","","","","","","",""
10.0,0.06209251657128334,0.001660757379490496,"train",11660.0,"2021-11-24 02:49:58.388261","","","","","","",""
10.0,0.03408656641840935,0.0016636089193405761,"train",11680.0,"2021-11-24 02:50:07.641428","","","","","","",""
10.0,0.038744132965803146,0.0016664509720718049,"train",11700.0,"2021-11-24 02:50:16.979722","","","","","","",""
10.0,0.06507216393947601,0.0016692834944473224,"train",11720.0,"2021-11-24 02:50:26.245690","","","","","","",""
10.0,0.04396918788552284,0.0016721064433752554,"train",11740.0,"2021-11-24 02:50:35.560020","","","","","","",""
10.0,0.040613360702991486,0.0016749197759093734,"train",11760.0,"2021-11-24 02:50:44.786370","","","","","","",""
10.0,0.037733931094408035,0.0016777234492497436,"train",11780.0,"2021-11-24 02:50:53.986523","","","","","","",""
10.0,0.04779946058988571,0.0016805174207433808,"train",11800.0,"2021-11-24 02:51:03.293966","","","","","","",""
10.0,"","","train",11814.0,"2021-11-24 02:55:30.729869",0.6281888961653205,0.672628974744777,0.9670882616743601,0.6542714126641689,0.561312080196187,0.5847878469171994,0.3876373734108884
10.0,"","","val",11814.0,"2021-11-24 02:56:37.880571",0.6086628783486026,0.630328928061122,0.9575583783782327,0.6272363574612405,0.5316272707300563,0.5532572727051607,0.3579598292838211
11.0,0.032222725450992584,0.0016833016478848956,"train",11820.0,"2021-11-24 02:56:44.117065","","","","","","",""
11.0,0.06366254389286041,0.0016860760883171426,"train",11840.0,"2021-11-24 02:56:53.646994","","","","","","",""
11.0,0.06187434494495392,0.001688840699831864,"train",11860.0,"2021-11-24 02:57:02.957865","","","","","","",""
11.0,0.047282807528972626,0.0016915954403703313,"train",11880.0,"2021-11-24 02:57:12.270580","","","","","","",""
11.0,0.059006206691265106,0.0016943402680239862,"train",11900.0,"2021-11-24 02:57:21.680845","","","","","","",""
11.0,0.043210044503211975,0.0016970751410350774,"train",11920.0,"2021-11-24 02:57:31.008243","","","","","","",""
11.0,0.051091067492961884,0.001699800017797296,"train",11940.0,"2021-11-24 02:57:40.277013","","","","","","",""
11.0,0.044197261333465576,0.0017025148568564086,"train",11960.0,"2021-11-24 02:57:49.635515","","","","","","",""
11.0,0.0660519152879715,0.001705219616910888,"train",11980.0,"2021-11-24 02:57:58.936219","","","","","","",""
11.0,0.04198867827653885,0.001707914256812541,"train",12000.0,"2021-11-24 02:58:08.223664","","","","","","",""
11.0,0.05383678898215294,0.0017105987355671352,"train",12020.0,"2021-11-24 02:58:17.575718","","","","","","",""
11.0,0.03845784068107605,0.0017132730123350227,"train",12040.0,"2021-11-24 02:58:26.913510","","","","","","",""
11.0,0.058953750878572464,0.00171593704643176,"train",12060.0,"2021-11-24 02:58:36.885833","","","","","","",""
11.0,0.05498974397778511,0.0017185907973287285,"train",12080.0,"2021-11-24 02:58:46.200432","","","","","","",""
11.0,0.06147028133273125,0.0017212342246537506,"train",12100.0,"2021-11-24 02:58:55.550620","","","","","","",""
11.0,0.04797067120671272,0.0017238672881917032,"train",12120.0,"2021-11-24 02:59:04.953501","","","","","","",""
11.0,0.041778068989515305,0.001726489947885131,"train",12140.0,"2021-11-24 02:59:14.403924","","","","","","",""
11.0,0.043410684913396835,0.0017291021638348543,"train",12160.0,"2021-11-24 02:59:23.683625","","","","","","",""
11.0,0.025846734642982483,0.0017317038963005765,"train",12180.0,"2021-11-24 02:59:33.020097","","","","","","",""
11.0,0.042096097022295,0.00173429510570149,"train",12200.0,"2021-11-24 02:59:42.399007","","","","","","",""
11.0,0.04208176210522652,0.0017368757526168759,"train",12220.0,"2021-11-24 02:59:51.800293","","","","","","",""
11.0,0.04468967020511627,0.0017394457977867057,"train",12240.0,"2021-11-24 03:00:01.096126","","","","","","",""
11.0,0.047748908400535583,0.0017420052021122378,"train",12260.0,"2021-11-24 03:00:10.451950","","","","","","",""
11.0,0.05461868271231651,0.0017445539266566128,"train",12280.0,"2021-11-24 03:00:19.732078","","","","","","",""
11.0,0.04665473848581314,0.001747091932645445,"train",12300.0,"2021-11-24 03:00:29.756693","","","","","","",""
11.0,0.08316083997488022,0.0017496191814674125,"train",12320.0,"2021-11-24 03:00:39.076393","","","","","","",""
11.0,0.058914296329021454,0.001752135634674846,"train",12340.0,"2021-11-24 03:00:48.390803","","","","","","",""
11.0,0.05517507717013359,0.0017546412539843118,"train",12360.0,"2021-11-24 03:00:57.694929","","","","","","",""
11.0,0.04671008139848709,0.001757136001277194,"train",12380.0,"2021-11-24 03:01:07.029599","","","","","","",""
11.0,0.05359247326850891,0.001759619838600278,"train",12400.0,"2021-11-24 03:01:16.353989","","","","","","",""
11.0,0.04474995285272598,0.0017620927281663229,"train",12420.0,"2021-11-24 03:01:25.756457","","","","","","",""
11.0,0.03852875530719757,0.0017645546323546398,"train",12440.0,"2021-11-24 03:01:35.054551","","","","","","",""
11.0,0.07235770672559738,0.0017670055137116636,"train",12460.0,"2021-11-24 03:01:44.374014","","","","","","",""
11.0,0.0493885762989521,0.0017694453349515209,"train",12480.0,"2021-11-24 03:01:53.717721","","","","","","",""
11.0,0.061673376709222794,0.0017718740589566,"train",12500.0,"2021-11-24 03:02:03.026138","","","","","","",""
11.0,0.06241067871451378,0.0017742916487781134,"train",12520.0,"2021-11-24 03:02:12.333451","","","","","","",""
11.0,0.07174547016620636,0.0017766980676366608,"train",12540.0,"2021-11-24 03:02:22.426857","","","","","","",""
11.0,0.040099985897541046,0.001779093278922789,"train",12560.0,"2021-11-24 03:02:31.778365","","","","","","",""
11.0,0.05667944252490997,0.001781477246197548,"train",12580.0,"2021-11-24 03:02:41.054413","","","","","","",""
11.0,0.03353358060121536,0.0017838499331930462,"train",12600.0,"2021-11-24 03:02:50.411612","","","","","","",""
11.0,0.07458584755659103,0.001786211303813001,"train",12620.0,"2021-11-24 03:02:59.657472","","","","","","",""
11.0,0.07093670964241028,0.0017885613221332894,"train",12640.0,"2021-11-24 03:03:08.943973","","","","","","",""
11.0,0.038591817021369934,0.0017908999524024931,"train",12660.0,"2021-11-24 03:03:18.278254","","","","","","",""
11.0,0.059245515614748,0.0017932271590424438,"train",12680.0,"2021-11-24 03:03:27.634824","","","","","","",""
11.0,0.06307828426361084,0.0017955429066487635,"train",12700.0,"2021-11-24 03:03:37.026905","","","","","","",""
11.0,0.0689619928598404,0.0017978471599914025,"train",12720.0,"2021-11-24 03:03:46.333653","","","","","","",""
11.0,0.055594004690647125,0.0018001398840151778,"train",12740.0,"2021-11-24 03:03:55.656072","","","","","","",""
11.0,0.0521792508661747,0.0018024210438403031,"train",12760.0,"2021-11-24 03:04:04.900167","","","","","","",""
11.0,0.04510786011815071,0.0018046906047629228,"train",12780.0,"2021-11-24 03:04:14.998493","","","","","","",""
11.0,0.06336264312267303,0.0018069485322556372,"train",12800.0,"2021-11-24 03:04:24.270517","","","","","","",""
11.0,0.04266858845949173,0.001809194791968029,"train",12820.0,"2021-11-24 03:04:33.567584","","","","","","",""
11.0,0.056878700852394104,0.0018114293497271863,"train",12840.0,"2021-11-24 03:04:42.900998","","","","","","",""
11.0,0.06778504699468613,0.0018136521715382218,"train",12860.0,"2021-11-24 03:04:52.277695","","","","","","",""
11.0,0.06509140878915787,0.0018158632235847892,"train",12880.0,"2021-11-24 03:05:01.590798","","","","","","",""
11.0,"","","train",12888.0,"2021-11-24 03:09:24.959948",0.632394673652041,0.6825322822471261,0.968783502132694,0.6397558789224361,0.538543915002754,0.5588591297257695,0.3787560712797284
11.0,"","","val",12888.0,"2021-11-24 03:10:33.086560",0.6133596196219413,0.627245682451101,0.9590845898983561,0.6133435392683132,0.5116020030902311,0.5298569008320679,0.35036207150970233
12.0,0.05219251289963722,0.0018180624722295999,"train",12900.0,"2021-11-24 03:10:41.368643","","","","","","",""
12.0,0.03959072381258011,0.001820249884014933,"train",12920.0,"2021-11-24 03:10:50.825110","","","","","","",""
12.0,0.06252100318670273,0.001822425425663144,"train",12940.0,"2021-11-24 03:11:00.251966","","","","","","",""
12.0,0.05036396533250809,0.0018245890640771725,"train",12960.0,"2021-11-24 03:11:09.583264","","","","","","",""
12.0,0.05070353299379349,0.0018267407663410452,"train",12980.0,"2021-11-24 03:11:19.773242","","","","","","",""
12.0,0.04883372783660889,0.0018288804997203755,"train",13000.0,"2021-11-24 03:11:29.200972","","","","","","",""
12.0,0.054159440100193024,0.0018310082316628634,"train",13020.0,"2021-11-24 03:11:38.594138","","","","","","",""
12.0,0.05120611563324928,0.0018331239297987893,"train",13040.0,"2021-11-24 03:11:48.000071","","","","","","",""
12.0,0.040938131511211395,0.0018352275619415066,"train",13060.0,"2021-11-24 03:11:57.474936","","","","","","",""
12.0,0.07713358849287033,0.0018373190960879326,"train",13080.0,"2021-11-24 03:12:06.840040","","","","","","",""
12.0,0.08103512972593307,0.0018393985004190336,"train",13100.0,"2021-11-24 03:12:16.212831","","","","","","",""
12.0,0.04383143410086632,0.00184146574330031,"train",13120.0,"2021-11-24 03:12:25.598886","","","","","","",""
12.0,0.04792670160531998,0.001843520793282278,"train",13140.0,"2021-11-24 03:12:35.684342","","","","","","",""
12.0,0.06646943837404251,0.0018455636191009464,"train",13160.0,"2021-11-24 03:12:45.134929","","","","","","",""
12.0,0.05807666853070259,0.001847594189678294,"train",13180.0,"2021-11-24 03:12:54.512461","","","","","","",""
12.0,0.030207516625523567,0.0018496124741227415,"train",13200.0,"2021-11-24 03:13:03.853258","","","","","","",""
12.0,0.05993237346410751,0.001851618441729622,"train",13220.0,"2021-11-24 03:13:13.213594","","","","","","",""
12.0,0.058081768453121185,0.0018536120619816467,"train",13240.0,"2021-11-24 03:13:22.622768","","","","","","",""
12.0,0.03677494451403618,0.0018555933045493712,"train",13260.0,"2021-11-24 03:13:31.963339","","","","","","",""
12.0,0.05564543977379799,0.0018575621392916554,"train",13280.0,"2021-11-24 03:13:41.400964","","","","","","",""
12.0,0.07922528684139252,0.0018595185362561225,"train",13300.0,"2021-11-24 03:13:51.499703","","","","","","",""
12.0,0.043957386165857315,0.0018614624656796155,"train",13320.0,"2021-11-24 03:14:00.913318","","","","","","",""
12.0,0.057304706424474716,0.0018633938979886484,"train",13340.0,"2021-11-24 03:14:10.268698","","","","","","",""
12.0,0.04415680095553398,0.0018653128037998568,"train",13360.0,"2021-11-24 03:14:19.688516","","","","","","",""
12.0,0.040412236005067825,0.0018672191539204459,"train",13380.0,"2021-11-24 03:14:29.054315","","","","","","",""
12.0,0.06583060324192047,0.0018691129193486335,"train",13400.0,"2021-11-24 03:14:38.490208","","","","","","",""
12.0,0.03953201323747635,0.0018709940712740908,"train",13420.0,"2021-11-24 03:14:47.884533","","","","","","",""
12.0,0.08400191366672516,0.0018728625810783823,"train",13440.0,"2021-11-24 03:14:57.212193","","","","","","",""
12.0,0.07044901698827744,0.0018747184203353996,"train",13460.0,"2021-11-24 03:15:07.218478","","","","","","",""
12.0,0.03597025200724602,0.0018765615608117947,"train",13480.0,"2021-11-24 03:15:16.542045","","","","","","",""
12.0,0.04278818517923355,0.0018783919744674096,"train",13500.0,"2021-11-24 03:15:25.827750","","","","","","",""
12.0,0.05094229429960251,0.0018802096334557027,"train",13520.0,"2021-11-24 03:15:35.118604","","","","","","",""
12.0,0.050610389560461044,0.0018820145101241712,"train",13540.0,"2021-11-24 03:15:44.478864","","","","","","",""
12.0,0.03882516548037529,0.0018838065770147745,"train",13560.0,"2021-11-24 03:15:53.833507","","","","","","",""
12.0,0.046405453234910965,0.0018855858068643496,"train",13580.0,"2021-11-24 03:16:03.126328","","","","","","",""
12.0,0.06238292530179024,0.001887352172605026,"train",13600.0,"2021-11-24 03:16:12.488460","","","","","","",""
12.0,0.05914710834622383,0.0018891056473646398,"train",13620.0,"2021-11-24 03:16:22.558259","","","","","","",""
12.0,0.04959738999605179,0.0018908462044671395,"train",13640.0,"2021-11-24 03:16:31.952491","","","","","","",""
12.0,0.04985371604561806,0.001892573817432993,"train",13660.0,"2021-11-24 03:16:41.313977","","","","","","",""
12.0,0.03741030395030975,0.0018942884599795914,"train",13680.0,"2021-11-24 03:16:50.613738","","","","","","",""
12.0,0.050091441720724106,0.001895990106021648,"train",13700.0,"2021-11-24 03:16:59.898928","","","","","","",""
12.0,0.030038248747587204,0.0018976787296715943,"train",13720.0,"2021-11-24 03:17:09.184971","","","","","","",""
12.0,0.036276549100875854,0.0018993543052399757,"train",13740.0,"2021-11-24 03:17:18.519599","","","","","","",""
12.0,0.05098129063844681,0.0019010168072358413,"train",13760.0,"2021-11-24 03:17:27.873819","","","","","","",""
12.0,0.06780748069286346,0.0019026662103671305,"train",13780.0,"2021-11-24 03:17:37.933610","","","","","","",""
12.0,0.04073009267449379,0.0019043024895410605,"train",13800.0,"2021-11-24 03:17:47.238545","","","","","","",""
12.0,0.06299950927495956,0.001905925619864506,"train",13820.0,"2021-11-24 03:17:56.583341","","","","","","",""
12.0,0.025661764666438103,0.001907535576644378,"train",13840.0,"2021-11-24 03:18:05.938367","","","","","","",""
12.0,0.04466930031776428,0.0019091323353880008,"train",13860.0,"2021-11-24 03:18:15.323321","","","","","","",""
12.0,0.05727720633149147,0.0019107158718034828,"train",13880.0,"2021-11-24 03:18:24.616727","","","","","","",""
12.0,0.04904618486762047,0.001912286161800088,"train",13900.0,"2021-11-24 03:18:33.976105","","","","","","",""
12.0,0.05906859040260315,0.0019138431814886008,"train",13920.0,"2021-11-24 03:18:43.269641","","","","","","",""
12.0,0.0627686008810997,0.0019153869071816896,"train",13940.0,"2021-11-24 03:18:53.359113","","","","","","",""
12.0,0.03767005354166031,0.0019169173153942693,"train",13960.0,"2021-11-24 03:19:02.688242","","","","","","",""
12.0,"","","train",13962.0,"2021-11-24 03:23:24.867642",0.634825001819108,0.6886111754315671,0.9722122555305343,0.6650461403084438,0.576651271432532,0.6028780492936736,0.4011243085489043
12.0,"","","val",13962.0,"2021-11-24 03:24:32.340967",0.6149831845065522,0.6369409784651977,0.9630199612004215,0.6360850481539159,0.5480433087619484,0.5718976652202419,0.37047577180434516
13.0,0.04004894569516182,0.0019184343828438557,"train",13980.0,"2021-11-24 03:24:43.530227","","","","","","",""
13.0,0.04228174686431885,0.0019199380864509208,"train",14000.0,"2021-11-24 03:24:52.954860","","","","","","",""
13.0,0.044164080172777176,0.0019214284033392457,"train",14020.0,"2021-11-24 03:25:02.339672","","","","","","",""
13.0,0.03552565723657608,0.0019229053108362649,"train",14040.0,"2021-11-24 03:25:11.710413","","","","","","",""
13.0,0.05411340668797493,0.0019243687864734145,"train",14060.0,"2021-11-24 03:25:21.100704","","","","","","",""
13.0,0.07209736108779907,0.0019258188079864732,"train",14080.0,"2021-11-24 03:25:31.256745","","","","","","",""
13.0,0.06024005264043808,0.0019272553533158999,"train",14100.0,"2021-11-24 03:25:40.789755","","","","","","",""
13.0,0.061611607670784,0.0019286784006071697,"train",14120.0,"2021-11-24 03:25:50.319264","","","","","","",""
13.0,0.05494758114218712,0.0019300879282111083,"train",14140.0,"2021-11-24 03:25:59.644916","","","","","","",""
13.0,0.03954986855387688,0.0019314839146842185,"train",14160.0,"2021-11-24 03:26:09.149477","","","","","","",""
13.0,0.049197133630514145,0.0019328663387890076,"train",14180.0,"2021-11-24 03:26:18.702405","","","","","","",""
13.0,0.044862162321805954,0.0019342351794943119,"train",14200.0,"2021-11-24 03:26:28.958636","","","","","","",""
13.0,0.06596215814352036,0.0019355904159756138,"train",14220.0,"2021-11-24 03:26:38.499200","","","","","","",""
13.0,0.06731847673654556,0.0019369320276153613,"train",14240.0,"2021-11-24 03:26:48.088102","","","","","","",""
13.0,0.037681348621845245,0.00193825999400328,"train",14260.0,"2021-11-24 03:26:57.634018","","","","","","",""
13.0,0.07136746495962143,0.0019395742949366843,"train",14280.0,"2021-11-24 03:27:07.204039","","","","","","",""
13.0,0.06254635751247406,0.0019408749104207845,"train",14300.0,"2021-11-24 03:27:16.811223","","","","","","",""
13.0,0.04573478177189827,0.0019421618206689913,"train",14320.0,"2021-11-24 03:27:27.035784","","","","","","",""
13.0,0.04567163065075874,0.0019434350061032163,"train",14340.0,"2021-11-24 03:27:36.564378","","","","","","",""
13.0,0.04558255895972252,0.0019446944473541703,"train",14360.0,"2021-11-24 03:27:46.138878","","","","","","",""
13.0,0.07290655374526978,0.0019459401252616573,"train",14380.0,"2021-11-24 03:27:55.704712","","","","","","",""
13.0,0.04868395999073982,0.001947172020874868,"train",14400.0,"2021-11-24 03:28:05.333104","","","","","","",""
13.0,0.05136042460799217,0.0019483901154526647,"train",14420.0,"2021-11-24 03:28:14.893649","","","","","","",""
13.0,0.03583608195185661,0.0019495943904638694,"train",14440.0,"2021-11-24 03:28:25.229754","","","","","","",""
13.0,0.06195138394832611,0.0019507848275875444,"train",14460.0,"2021-11-24 03:28:34.867708","","","","","","",""
13.0,0.04239039495587349,0.0019519614087132712,"train",14480.0,"2021-11-24 03:28:44.478287","","","","","","",""
13.0,0.07144374400377274,0.0019531241159414263,"train",14500.0,"2021-11-24 03:28:54.004419","","","","","","",""
13.0,0.03948880359530449,0.001954272931583453,"train",14520.0,"2021-11-24 03:29:03.569990","","","","","","",""
13.0,0.05078678950667381,0.0019554078381621306,"train",14540.0,"2021-11-24 03:29:13.153203","","","","","","",""
13.0,0.052769552916288376,0.0019565288184118417,"train",14560.0,"2021-11-24 03:29:23.390948","","","","","","",""
13.0,0.05385221540927887,0.0019576358552788314,"train",14580.0,"2021-11-24 03:29:32.859861","","","","","","",""
13.0,0.030719615519046783,0.0019587289319214713,"train",14600.0,"2021-11-24 03:29:42.295292","","","","","","",""
13.0,0.057493798434734344,0.0019598080317105113,"train",14620.0,"2021-11-24 03:29:51.749838","","","","","","",""
13.0,0.028946533799171448,0.001960873138229337,"train",14640.0,"2021-11-24 03:30:01.225946","","","","","","",""
13.0,0.04392501339316368,0.0019619242352742153,"train",14660.0,"2021-11-24 03:30:10.634568","","","","","","",""
13.0,0.03690266236662865,0.001962961306854543,"train",14680.0,"2021-11-24 03:30:20.075627","","","","","","",""
13.0,0.05785723775625229,0.0019639843371930905,"train",14700.0,"2021-11-24 03:30:30.278367","","","","","","",""
13.0,0.0427304171025753,0.001964993310726241,"train",14720.0,"2021-11-24 03:30:39.762317","","","","","","",""
13.0,0.057187072932720184,0.0019659882121042262,"train",14740.0,"2021-11-24 03:30:49.262513","","","","","","",""
13.0,0.077684186398983,0.001966969026191363,"train",14760.0,"2021-11-24 03:30:58.719333","","","","","","",""
13.0,0.08028390258550644,0.0019679357380662805,"train",14780.0,"2021-11-24 03:31:08.181743","","","","","","",""
13.0,0.06842724233865738,0.001968888333022148,"train",14800.0,"2021-11-24 03:31:17.597024","","","","","","",""
13.0,0.06246422976255417,0.0019698267965669,"train",14820.0,"2021-11-24 03:31:27.743447","","","","","","",""
13.0,0.05982623249292374,0.0019707511144234557,"train",14840.0,"2021-11-24 03:31:37.209682","","","","","","",""
13.0,0.0551411472260952,0.001971661272529935,"train",14860.0,"2021-11-24 03:31:46.738371","","","","","","",""
13.0,0.037194304168224335,0.001972557257039875,"train",14880.0,"2021-11-24 03:31:56.226183","","","","","","",""
13.0,0.03532547503709793,0.0019734390543224385,"train",14900.0,"2021-11-24 03:32:05.635566","","","","","","",""
13.0,0.03560991585254669,0.001974306650962622,"train",14920.0,"2021-11-24 03:32:15.140502","","","","","","",""
13.0,0.05239676311612129,0.0019751600337614608,"train",14940.0,"2021-11-24 03:32:25.277587","","","","","","",""
13.0,0.06623651832342148,0.0019759991897362284,"train",14960.0,"2021-11-24 03:32:34.705382","","","","","","",""
13.0,0.052877895534038544,0.0019768241061206343,"train",14980.0,"2021-11-24 03:32:44.200185","","","","","","",""
13.0,0.0493021123111248,0.0019776347703650186,"train",15000.0,"2021-11-24 03:32:53.666218","","","","","","",""
13.0,0.0386921688914299,0.001978431170136543,"train",15020.0,"2021-11-24 03:33:03.089325","","","","","","",""
13.0,"","","train",15036.0,"2021-11-24 03:37:31.992574",0.6432947682456523,0.6925983958613876,0.9713327833108895,0.6697518136506291,0.5656722663365505,0.5892726503872995,0.3999392492432017
13.0,"","","val",15036.0,"2021-11-24 03:38:39.487293",0.617534500753798,0.6424027438618481,0.9618093496931309,0.6371788520432712,0.5299610844337537,0.5507770425326431,0.3624416470151599
14.0,0.06239164248108864,0.0019792132933193784,"train",15040.0,"2021-11-24 03:38:43.936141","","","","","","",""
14.0,0.04631401225924492,0.001979981128014888,"train",15060.0,"2021-11-24 03:38:54.142793","","","","","","",""
14.0,0.05019000545144081,0.001980734662541811,"train",15080.0,"2021-11-24 03:39:03.507899","","","","","","",""
14.0,0.053886231034994125,0.0019814738854364374,"train",15100.0,"2021-11-24 03:39:12.895398","","","","","","",""
14.0,0.08283870667219162,0.0019821987854527832,"train",15120.0,"2021-11-24 03:39:22.234674","","","","","","",""
14.0,0.0580737330019474,0.0019829093515627634,"train",15140.0,"2021-11-24 03:39:31.557445","","","","","","",""
14.0,0.06118951737880707,0.001983605572956358,"train",15160.0,"2021-11-24 03:39:41.501259","","","","","","",""
14.0,0.0538615845143795,0.001984287439041775,"train",15180.0,"2021-11-24 03:39:50.874374","","","","","","",""
14.0,0.03999248519539833,0.001984954939445616,"train",15200.0,"2021-11-24 03:40:00.373466","","","","","","",""
14.0,0.046055782586336136,0.0019856080640130295,"train",15220.0,"2021-11-24 03:40:09.779576","","","","","","",""
14.0,0.05349728465080261,0.0019862468028078676,"train",15240.0,"2021-11-24 03:40:19.165979","","","","","","",""
14.0,0.041192930191755295,0.001986871146112837,"train",15260.0,"2021-11-24 03:40:29.234865","","","","","","",""
14.0,0.047711312770843506,0.0019874810844296466,"train",15280.0,"2021-11-24 03:40:38.578832","","","","","","",""
14.0,0.05161767452955246,0.0019880766084791517,"train",15300.0,"2021-11-24 03:40:47.895745","","","","","","",""
14.0,0.07590802758932114,0.0019886577092014953,"train",15320.0,"2021-11-24 03:40:57.230078","","","","","","",""
14.0,0.03420445695519447,0.001989224377756247,"train",15340.0,"2021-11-24 03:41:06.528484","","","","","","",""
14.0,0.054828353226184845,0.0019897766055225353,"train",15360.0,"2021-11-24 03:41:16.502755","","","","","","",""
14.0,0.04797130078077316,0.0019903143840991813,"train",15380.0,"2021-11-24 03:41:25.761633","","","","","","",""
14.0,0.03755947947502136,0.0019908377053048246,"train",15400.0,"2021-11-24 03:41:35.047881","","","","","","",""
14.0,0.042369816452264786,0.001991346561178048,"train",15420.0,"2021-11-24 03:41:44.273822","","","","","","",""
14.0,0.03138751536607742,0.0019918409439775003,"train",15440.0,"2021-11-24 03:41:53.613106","","","","","","",""
14.0,0.04247087985277176,0.0019923208461820117,"train",15460.0,"2021-11-24 03:42:03.694386","","","","","","",""
14.0,0.043219760060310364,0.001992786260490709,"train",15480.0,"2021-11-24 03:42:13.027051","","","","","","",""
14.0,0.05103995278477669,0.0019932371798231287,"train",15500.0,"2021-11-24 03:42:22.395253","","","","","","",""
14.0,0.05246056988835335,0.0019936735973193212,"train",15520.0,"2021-11-24 03:42:31.780556","","","","","","",""
14.0,0.04879827797412872,0.001994095506339958,"train",15540.0,"2021-11-24 03:42:41.246404","","","","","","",""
14.0,0.05004281550645828,0.001994502900466431,"train",15560.0,"2021-11-24 03:42:51.369817","","","","","","",""
14.0,0.04242941364645958,0.0019948957735009517,"train",15580.0,"2021-11-24 03:43:00.667740","","","","","","",""
14.0,0.03342119976878166,0.0019952741194666436,"train",15600.0,"2021-11-24 03:43:10.005289","","","","","","",""
14.0,0.041586775332689285,0.0019956379326076354,"train",15620.0,"2021-11-24 03:43:19.322256","","","","","","",""
14.0,0.06496546417474747,0.001995987207389146,"train",15640.0,"2021-11-24 03:43:29.347872","","","","","","",""
14.0,0.041702281683683395,0.0019963219384975706,"train",15660.0,"2021-11-24 03:43:38.674376","","","","","","",""
14.0,0.05192122608423233,0.001996642120840561,"train",15680.0,"2021-11-24 03:43:48.047518","","","","","","",""
14.0,0.06621363759040833,0.001996947749547103,"train",15700.0,"2021-11-24 03:43:57.426604","","","","","","",""
14.0,0.04067353159189224,0.0019972388199675905,"train",15720.0,"2021-11-24 03:44:06.749970","","","","","","",""
14.0,0.08183567970991135,0.001997515327673896,"train",15740.0,"2021-11-24 03:44:16.715349","","","","","","",""
14.0,0.05481256917119026,0.0019977772684594388,"train",15760.0,"2021-11-24 03:44:26.008982","","","","","","",""
14.0,0.07019234448671341,0.0019980246383392475,"train",15780.0,"2021-11-24 03:44:35.304364","","","","","","",""
14.0,0.052388448268175125,0.0019982574335500225,"train",15800.0,"2021-11-24 03:44:44.616250","","","","","","",""
14.0,0.06767978519201279,0.001998475650550192,"train",15820.0,"2021-11-24 03:44:53.948561","","","","","","",""
14.0,0.04486292600631714,0.0019986792860199657,"train",15840.0,"2021-11-24 03:45:04.006486","","","","","","",""
14.0,0.03773362189531326,0.001998868336861386,"train",15860.0,"2021-11-24 03:45:13.380817","","","","","","",""
14.0,0.06389113515615463,0.001999042800198376,"train",15880.0,"2021-11-24 03:45:22.707759","","","","","","",""
14.0,0.041942890733480453,0.00199920267337678,"train",15900.0,"2021-11-24 03:45:32.042768","","","","","","",""
14.0,0.05752537027001381,0.0019993479539644077,"train",15920.0,"2021-11-24 03:45:41.351744","","","","","","",""
14.0,0.07896395027637482,0.0019994786397510697,"train",15940.0,"2021-11-24 03:45:51.364501","","","","","","",""
14.0,0.04898834973573685,0.0019995947287486096,"train",15960.0,"2021-11-24 03:46:00.702499","","","","","","",""
14.0,0.060441430658102036,0.0019996962191909367,"train",15980.0,"2021-11-24 03:46:10.004354","","","","","","",""
14.0,0.06803784519433975,0.0019997831095340513,"train",16000.0,"2021-11-24 03:46:19.306759","","","","","","",""
14.0,0.04915746673941612,0.001999855398456069,"train",16020.0,"2021-11-24 03:46:28.627374","","","","","","",""
14.0,0.060094598680734634,0.00199991308485724,"train",16040.0,"2021-11-24 03:46:38.696337","","","","","","",""
14.0,0.05468612164258957,0.001999956167859967,"train",16060.0,"2021-11-24 03:46:48.021252","","","","","","",""
14.0,0.049417782574892044,0.0019999846468088172,"train",16080.0,"2021-11-24 03:46:57.363171","","","","","","",""
14.0,0.05250249058008194,0.0019999985212705335,"train",16100.0,"2021-11-24 03:47:06.657050","","","","","","",""
14.0,"","","train",16110.0,"2021-11-24 03:51:32.243687",0.6460452594047879,0.6989905339850027,0.9729733989662996,0.6728403837394394,0.5790265307007011,0.6118843356800044,0.4047993647613787
14.0,"","","val",16110.0,"2021-11-24 03:52:39.697716",0.6218833352661487,0.6430454784671239,0.9627231954662702,0.6417302819326338,0.5451187280274404,0.5739920467582699,0.3690154755156793
15.0,0.08782042562961578,0.0019999995774202316,"train",16120.0,"2021-11-24 03:52:47.113199","","","","","","",""
15.0,0.02929353341460228,0.0019999966438102564,"train",16140.0,"2021-11-24 03:52:57.416105","","","","","","",""
15.0,0.062244776636362076,0.0019999909162942875,"train",16160.0,"2021-11-24 03:53:06.970065","","","","","","",""
15.0,0.03275258466601372,0.001999982394888327,"train",16180.0,"2021-11-24 03:53:16.376043","","","","","","",""
15.0,0.03040657751262188,0.0019999710796161823,"train",16200.0,"2021-11-24 03:53:25.753273","","","","","","",""
15.0,0.040176015347242355,0.0019999569705094686,"train",16220.0,"2021-11-24 03:53:35.779856","","","","","","",""
15.0,0.02668611891567707,0.001999940067607605,"train",16240.0,"2021-11-24 03:53:45.200812","","","","","","",""
15.0,0.05237066000699997,0.001999920370957817,"train",16260.0,"2021-11-24 03:53:54.568854","","","","","","",""
15.0,0.030088718980550766,0.0019998978806151355,"train",16280.0,"2021-11-24 03:54:03.913063","","","","","","",""
15.0,0.05311105027794838,0.0019998725966423976,"train",16300.0,"2021-11-24 03:54:13.978774","","","","","","",""
15.0,0.07144023478031158,0.001999844519110244,"train",16320.0,"2021-11-24 03:54:23.327041","","","","","","",""
15.0,0.03146238997578621,0.001999813648097122,"train",16340.0,"2021-11-24 03:54:32.676767","","","","","","",""
15.0,0.04453139752149582,0.001999779983689282,"train",16360.0,"2021-11-24 03:54:42.079982","","","","","","",""
15.0,0.03681495785713196,0.0019997435259807806,"train",16380.0,"2021-11-24 03:54:52.110398","","","","","","",""
15.0,0.06748946756124496,0.001999704275073478,"train",16400.0,"2021-11-24 03:55:01.526956","","","","","","",""
15.0,0.04987999424338341,0.0019996622310770383,"train",16420.0,"2021-11-24 03:55:10.914135","","","","","","",""
15.0,0.041539061814546585,0.0019996173941089286,"train",16440.0,"2021-11-24 03:55:20.283444","","","","","","",""
15.0,0.04620889574289322,0.0019995697642944212,"train",16460.0,"2021-11-24 03:55:29.632860","","","","","","",""
15.0,0.041666120290756226,0.0019995193417665894,"train",16480.0,"2021-11-24 03:55:39.738449","","","","","","",""
15.0,0.042341720312833786,0.0019994661266663108,"train",16500.0,"2021-11-24 03:55:49.039741","","","","","","",""
15.0,0.051961202174425125,0.001999410119142264,"train",16520.0,"2021-11-24 03:55:58.445086","","","","","","",""
15.0,0.06121020391583443,0.0019993513193509297,"train",16540.0,"2021-11-24 03:56:07.829571","","","","","","",""
15.0,0.07732241600751877,0.0019992897274565906,"train",16560.0,"2021-11-24 03:56:17.800019","","","","","","",""
15.0,0.0675799697637558,0.0019992253436313303,"train",16580.0,"2021-11-24 03:56:27.180149","","","","","","",""
15.0,0.06127319112420082,0.0019991581680550313,"train",16600.0,"2021-11-24 03:56:36.514319","","","","","","",""
15.0,0.05839923024177551,0.0019990882009153785,"train",16620.0,"2021-11-24 03:56:45.923108","","","","","","",""
15.0,0.03974558785557747,0.001999015442407854,"train",16640.0,"2021-11-24 03:56:56.094969","","","","","","",""
15.0,0.051354702562093735,0.0019989398927357403,"train",16660.0,"2021-11-24 03:57:05.456532","","","","","","",""
15.0,0.07913663238286972,0.0019988615521101174,"train",16680.0,"2021-11-24 03:57:14.831398","","","","","","",""
15.0,0.04441007599234581,0.0019987804207498637,"train",16700.0,"2021-11-24 03:57:24.179249","","","","","","",""
15.0,0.03840794041752815,0.0019986964988816533,"train",16720.0,"2021-11-24 03:57:34.185344","","","","","","",""
15.0,0.059512145817279816,0.0019986097867399585,"train",16740.0,"2021-11-24 03:57:43.498412","","","","","","",""
15.0,0.04831039160490036,0.0019985202845670463,"train",16760.0,"2021-11-24 03:57:52.812222","","","","","","",""
15.0,0.05607433617115021,0.0019984279926129798,"train",16780.0,"2021-11-24 03:58:02.163950","","","","","","",""
15.0,0.06539756804704666,0.001998332911135615,"train",16800.0,"2021-11-24 03:58:12.161181","","","","","","",""
15.0,0.0363740473985672,0.0019982350404006036,"train",16820.0,"2021-11-24 03:58:21.566162","","","","","","",""
15.0,0.05232378467917442,0.0019981343806813883,"train",16840.0,"2021-11-24 03:58:30.889812","","","","","","",""
15.0,0.05625515803694725,0.001998030932259205,"train",16860.0,"2021-11-24 03:58:40.267202","","","","","","",""
15.0,0.049408599734306335,0.0019979246954230823,"train",16880.0,"2021-11-24 03:58:50.292788","","","","","","",""
15.0,0.036884840577840805,0.0019978156704698363,"train",16900.0,"2021-11-24 03:58:59.681586","","","","","","",""
15.0,0.06457895040512085,0.001997703857704076,"train",16920.0,"2021-11-24 03:59:09.032114","","","","","","",""
15.0,0.05517461895942688,0.0019975892574381976,"train",16940.0,"2021-11-24 03:59:18.472156","","","","","","",""
15.0,0.05940861999988556,0.001997471869992386,"train",16960.0,"2021-11-24 03:59:28.587847","","","","","","",""
15.0,0.035210639238357544,0.0019973516956946127,"train",16980.0,"2021-11-24 03:59:37.992118","","","","","","",""
15.0,0.033722203224897385,0.0019972287348806366,"train",17000.0,"2021-11-24 03:59:47.438310","","","","","","",""
15.0,0.04855388030409813,0.0019971029878940003,"train",17020.0,"2021-11-24 03:59:56.817000","","","","","","",""
15.0,0.04094913229346275,0.0019969744550860317,"train",17040.0,"2021-11-24 04:00:06.170807","","","","","","",""
15.0,0.04749370738863945,0.0019968431368158433,"train",17060.0,"2021-11-24 04:00:16.172446","","","","","","",""
15.0,0.05273500084877014,0.001996709033450327,"train",17080.0,"2021-11-24 04:00:25.584327","","","","","","",""
15.0,0.034186869859695435,0.0019965721453641585,"train",17100.0,"2021-11-24 04:00:35.002590","","","","","","",""
15.0,0.03479690104722977,0.0019964324729397935,"train",17120.0,"2021-11-24 04:00:44.463253","","","","","","",""
15.0,0.048523493111133575,0.0019962900165674657,"train",17140.0,"2021-11-24 04:00:54.577938","","","","","","",""
15.0,0.0642189010977745,0.0019961447766451887,"train",17160.0,"2021-11-24 04:01:03.948063","","","","","","",""
15.0,0.050302304327487946,0.001995996753578751,"train",17180.0,"2021-11-24 04:01:13.313754","","","","","","",""
15.0,"","","train",17184.0,"2021-11-24 04:05:36.675975",0.6462489994906497,0.7063787577182175,0.973719652742488,0.6957120051463378,0.6014856611863758,0.6281964772659585,0.4184448722820635
15.0,"","","val",17184.0,"2021-11-24 04:06:43.893473",0.619505972399397,0.6520402425523708,0.9630505714569678,0.6634742543395119,0.5640351496704488,0.5856911279758948,0.3782225001576049
16.0,0.040606748312711716,0.001995845947781719,"train",17200.0,"2021-11-24 04:06:54.113720","","","","","","",""
16.0,0.03989538177847862,0.001995692359675433,"train",17220.0,"2021-11-24 04:07:04.262379","","","","","","",""
16.0,0.05784234777092934,0.0019955359896890066,"train",17240.0,"2021-11-24 04:07:13.710198","","","","","","",""
16.0,0.08162355422973633,0.0019953768382593258,"train",17260.0,"2021-11-24 04:07:23.107846","","","","","","",""
16.0,0.05432137846946716,0.0019952149058310486,"train",17280.0,"2021-11-24 04:07:33.215178","","","","","","",""
16.0,0.047668226063251495,0.001995050192856602,"train",17300.0,"2021-11-24 04:07:42.571340","","","","","","",""
16.0,0.041748274117708206,0.001994882699796182,"train",17320.0,"2021-11-24 04:07:51.898328","","","","","","",""
16.0,0.04026547074317932,0.001994712427117752,"train",17340.0,"2021-11-24 04:08:01.236711","","","","","","",""
16.0,0.03565286099910736,0.0019945393752970413,"train",17360.0,"2021-11-24 04:08:11.242282","","","","","","",""
16.0,0.03658030927181244,0.001994363544817544,"train",17380.0,"2021-11-24 04:08:20.590664","","","","","","",""
16.0,0.04756470397114754,0.001994184936170517,"train",17400.0,"2021-11-24 04:08:30.062757","","","","","","",""
16.0,0.0298689566552639,0.0019940035498549804,"train",17420.0,"2021-11-24 04:08:39.416470","","","","","","",""
16.0,0.08063860982656479,0.0019938193863777145,"train",17440.0,"2021-11-24 04:08:49.474081","","","","","","",""
16.0,0.03737294673919678,0.001993632446253258,"train",17460.0,"2021-11-24 04:08:58.829104","","","","","","",""
16.0,0.033444132655858994,0.0019934427300039074,"train",17480.0,"2021-11-24 04:09:08.164623","","","","","","",""
16.0,0.033108074218034744,0.001993250238159717,"train",17500.0,"2021-11-24 04:09:18.177786","","","","","","",""
16.0,0.0477324016392231,0.0019930549712584944,"train",17520.0,"2021-11-24 04:09:27.613965","","","","","","",""
16.0,0.03699110075831413,0.001992856929845801,"train",17540.0,"2021-11-24 04:09:37.027603","","","","","","",""
16.0,0.04243164137005806,0.0019926561144749497,"train",17560.0,"2021-11-24 04:09:46.361534","","","","","","",""
16.0,0.07283937931060791,0.001992452525707004,"train",17580.0,"2021-11-24 04:09:56.404673","","","","","","",""
16.0,0.0646653026342392,0.0019922461641107767,"train",17600.0,"2021-11-24 04:10:05.801047","","","","","","",""
16.0,0.07362289726734161,0.001992037030262826,"train",17620.0,"2021-11-24 04:10:15.101751","","","","","","",""
16.0,0.03232112526893616,0.0019918251247474567,"train",17640.0,"2021-11-24 04:10:25.210438","","","","","","",""
16.0,0.055064886808395386,0.001991610448156718,"train",17660.0,"2021-11-24 04:10:34.683104","","","","","","",""
16.0,0.04405706748366356,0.0019913930010903996,"train",17680.0,"2021-11-24 04:10:44.043075","","","","","","",""
16.0,0.06989102810621262,0.001991172784156033,"train",17700.0,"2021-11-24 04:10:53.445096","","","","","","",""
16.0,0.057859793305397034,0.0019909497979688877,"train",17720.0,"2021-11-24 04:11:03.414929","","","","","","",""
16.0,0.04906172677874565,0.0019907240431519713,"train",17740.0,"2021-11-24 04:11:12.788388","","","","","","",""
16.0,0.03355853632092476,0.001990495520336026,"train",17760.0,"2021-11-24 04:11:22.091856","","","","","","",""
16.0,0.037710148841142654,0.0019902642301595284,"train",17780.0,"2021-11-24 04:11:31.493502","","","","","","",""
16.0,0.032515160739421844,0.001990030173268685,"train",17800.0,"2021-11-24 04:11:41.469542","","","","","","",""
16.0,0.03569294884800911,0.0019897933503174345,"train",17820.0,"2021-11-24 04:11:50.841438","","","","","","",""
16.0,0.038543518632650375,0.0019895537619674425,"train",17840.0,"2021-11-24 04:12:00.188002","","","","","","",""
16.0,0.06571046262979507,0.001989311408888101,"train",17860.0,"2021-11-24 04:12:10.247417","","","","","","",""
16.0,0.04251148924231529,0.001989066291756527,"train",17880.0,"2021-11-24 04:12:19.588653","","","","","","",""
16.0,0.037951499223709106,0.00198881841125756,"train",17900.0,"2021-11-24 04:12:28.913336","","","","","","",""
16.0,0.037934333086013794,0.0019885677680837595,"train",17920.0,"2021-11-24 04:12:38.251401","","","","","","",""
16.0,0.03180772811174393,0.001988314362935404,"train",17940.0,"2021-11-24 04:12:48.275646","","","","","","",""
16.0,0.06557396799325943,0.0019880581965204896,"train",17960.0,"2021-11-24 04:12:57.566919","","","","","","",""
16.0,0.07055129110813141,0.0019877992695547255,"train",17980.0,"2021-11-24 04:13:06.867610","","","","","","",""
16.0,0.03259238228201866,0.0019875375827615354,"train",18000.0,"2021-11-24 04:13:16.892935","","","","","","",""
16.0,0.06261399388313293,0.0019872731368720527,"train",18020.0,"2021-11-24 04:13:26.196851","","","","","","",""
16.0,0.05029355362057686,0.00198700593262512,"train",18040.0,"2021-11-24 04:13:35.533377","","","","","","",""
16.0,0.06919903308153152,0.001986735970767286,"train",18060.0,"2021-11-24 04:13:44.895509","","","","","","",""
16.0,0.040140796452760696,0.001986463252052804,"train",18080.0,"2021-11-24 04:13:54.946853","","","","","","",""
16.0,0.08198373764753342,0.0019861877772436305,"train",18100.0,"2021-11-24 04:14:04.285967","","","","","","",""
16.0,0.05240196734666824,0.001985909547109422,"train",18120.0,"2021-11-24 04:14:13.626346","","","","","","",""
16.0,0.06147470325231552,0.001985628562427533,"train",18140.0,"2021-11-24 04:14:22.988034","","","","","","",""
16.0,0.05946763977408409,0.001985344823983014,"train",18160.0,"2021-11-24 04:14:32.860790","","","","","","",""
16.0,0.07148625701665878,0.001985058332568609,"train",18180.0,"2021-11-24 04:14:42.189682","","","","","","",""
16.0,0.03742573410272598,0.001984769088984755,"train",18200.0,"2021-11-24 04:14:51.513982","","","","","","",""
16.0,0.030371621251106262,0.001984477094039576,"train",18220.0,"2021-11-24 04:15:01.542695","","","","","","",""
16.0,0.04926980659365654,0.001984182348548885,"train",18240.0,"2021-11-24 04:15:10.871215","","","","","","",""
16.0,"","","train",18258.0,"2021-11-24 04:19:40.402541",0.6509204686021974,0.7153159852056681,0.9747861541632331,0.6697256687556137,0.5913415509073953,0.6217808104223449,0.41919570052813265
16.0,"","","val",18258.0,"2021-11-24 04:20:47.934977",0.619679925779891,0.644803748586122,0.9633792793051129,0.6300627134014999,0.5468928667031361,0.5724664893328141,0.3715395871889525
17.0,0.04573070630431175,0.00198388485333618,"train",18260.0,"2021-11-24 04:20:51.397220","","","","","","",""
17.0,0.0797894224524498,0.0019835846092326396,"train",18280.0,"2021-11-24 04:21:01.192053","","","","","","",""
17.0,0.08279258012771606,0.0019832816170771246,"train",18300.0,"2021-11-24 04:21:11.687147","","","","","","",""
17.0,0.029559053480625153,0.001982975877716172,"train",18320.0,"2021-11-24 04:21:21.327583","","","","","","",""
17.0,0.033269304782152176,0.0019826673920039957,"train",18340.0,"2021-11-24 04:21:30.923009","","","","","","",""
17.0,0.035104043781757355,0.0019823561608024822,"train",18360.0,"2021-11-24 04:21:41.160787","","","","","","",""
17.0,0.0285040233284235,0.0019820421849811886,"train",18380.0,"2021-11-24 04:21:50.689214","","","","","","",""
17.0,0.04000464454293251,0.0019817254654173402,"train",18400.0,"2021-11-24 04:22:00.183533","","","","","","",""
17.0,0.07521593570709229,0.0019814060029958278,"train",18420.0,"2021-11-24 04:22:10.326430","","","","","","",""
17.0,0.04391905665397644,0.001981083798609206,"train",18440.0,"2021-11-24 04:22:19.794220","","","","","","",""
17.0,0.041023626923561096,0.0019807588531576908,"train",18460.0,"2021-11-24 04:22:29.305872","","","","","","",""
17.0,0.06907311826944351,0.0019804311675491555,"train",18480.0,"2021-11-24 04:22:39.474241","","","","","","",""
17.0,0.06647193431854248,0.00198010074269913,"train",18500.0,"2021-11-24 04:22:49.011240","","","","","","",""
17.0,0.03952646255493164,0.0019797675795307965,"train",18520.0,"2021-11-24 04:22:58.511148","","","","","","",""
17.0,0.037439826875925064,0.0019794316789749885,"train",18540.0,"2021-11-24 04:23:08.779620","","","","","","",""
17.0,0.06363785266876221,0.0019790930419701877,"train",18560.0,"2021-11-24 04:23:18.304594","","","","","","",""
17.0,0.04012546315789223,0.0019787516694625214,"train",18580.0,"2021-11-24 04:23:27.835207","","","","","","",""
17.0,0.07561388611793518,0.0019784075624057584,"train",18600.0,"2021-11-24 04:23:37.997128","","","","","","",""
17.0,0.040312886238098145,0.0019780607217613094,"train",18620.0,"2021-11-24 04:23:47.574775","","","","","","",""
17.0,0.0507185123860836,0.001977711148498221,"train",18640.0,"2021-11-24 04:23:57.099098","","","","","","",""
17.0,0.053857870399951935,0.0019773588435931756,"train",18660.0,"2021-11-24 04:24:07.309520","","","","","","",""
17.0,0.04857507348060608,0.0019770038080304873,"train",18680.0,"2021-11-24 04:24:16.726855","","","","","","",""
17.0,0.05795765295624733,0.001976646042802099,"train",18700.0,"2021-11-24 04:24:26.248002","","","","","","",""
17.0,0.049942485988140106,0.0019762855489075808,"train",18720.0,"2021-11-24 04:24:35.720022","","","","","","",""
17.0,0.05745937302708626,0.001975922327354126,"train",18740.0,"2021-11-24 04:24:45.890322","","","","","","",""
17.0,0.045391809195280075,0.001975556379156549,"train",18760.0,"2021-11-24 04:24:55.403706","","","","","","",""
17.0,0.06308192759752274,0.0019751877053372823,"train",18780.0,"2021-11-24 04:25:04.829719","","","","","","",""
17.0,0.0411655455827713,0.001974816306926373,"train",18800.0,"2021-11-24 04:25:14.953261","","","","","","",""
17.0,0.04314134269952774,0.001974442184961482,"train",18820.0,"2021-11-24 04:25:24.401868","","","","","","",""
17.0,0.053184639662504196,0.0019740653404878776,"train",18840.0,"2021-11-24 04:25:33.873895","","","","","","",""
17.0,0.06401968002319336,0.0019736857745584362,"train",18860.0,"2021-11-24 04:25:43.980393","","","","","","",""
17.0,0.03568502143025398,0.0019733034882336367,"train",18880.0,"2021-11-24 04:25:53.425833","","","","","","",""
17.0,0.0498262383043766,0.0019729184825815586,"train",18900.0,"2021-11-24 04:26:02.871461","","","","","","",""
17.0,0.0648045763373375,0.0019725307586778806,"train",18920.0,"2021-11-24 04:26:12.964528","","","","","","",""
17.0,0.03724709898233414,0.001972140317605874,"train",18940.0,"2021-11-24 04:26:22.392203","","","","","","",""
17.0,0.05276995524764061,0.0019717471604564028,"train",18960.0,"2021-11-24 04:26:31.978479","","","","","","",""
17.0,0.04188016429543495,0.0019713512883279185,"train",18980.0,"2021-11-24 04:26:42.114059","","","","","","",""
17.0,0.03281235694885254,0.00197095270232646,"train",19000.0,"2021-11-24 04:26:51.560687","","","","","","",""
17.0,0.043245334178209305,0.001970551403565646,"train",19020.0,"2021-11-24 04:27:01.234500","","","","","","",""
17.0,0.04709320142865181,0.0019701473931666765,"train",19040.0,"2021-11-24 04:27:11.446125","","","","","","",""
17.0,0.07213318347930908,0.001969740672258327,"train",19060.0,"2021-11-24 04:27:20.951942","","","","","","",""
17.0,0.07551811635494232,0.0019693312419769454,"train",19080.0,"2021-11-24 04:27:30.480064","","","","","","",""
17.0,0.04314960911870003,0.0019689191034664498,"train",19100.0,"2021-11-24 04:27:39.984161","","","","","","",""
17.0,0.058955319225788116,0.0019685042578783257,"train",19120.0,"2021-11-24 04:27:50.063865","","","","","","",""
17.0,0.053841665387153625,0.00196808670637162,"train",19140.0,"2021-11-24 04:27:59.538694","","","","","","",""
17.0,0.03498956188559532,0.001967666450112942,"train",19160.0,"2021-11-24 04:28:09.046254","","","","","","",""
17.0,0.05180465430021286,0.001967243490276456,"train",19180.0,"2021-11-24 04:28:19.211937","","","","","","",""
17.0,0.06269848346710205,0.0019668178280438818,"train",19200.0,"2021-11-24 04:28:28.715447","","","","","","",""
17.0,0.06574831157922745,0.0019663894646044875,"train",19220.0,"2021-11-24 04:28:38.181967","","","","","","",""
17.0,0.06305166333913803,0.001965958401155089,"train",19240.0,"2021-11-24 04:28:48.394768","","","","","","",""
17.0,0.05359587073326111,0.0019655246389000463,"train",19260.0,"2021-11-24 04:28:57.869798","","","","","","",""
17.0,0.06159656122326851,0.0019650881790512597,"train",19280.0,"2021-11-24 04:29:07.357075","","","","","","",""
17.0,0.05087675526738167,0.001964649022828165,"train",19300.0,"2021-11-24 04:29:17.441164","","","","","","",""
17.0,0.07044285535812378,0.0019642071714577325,"train",19320.0,"2021-11-24 04:29:26.848311","","","","","","",""
17.0,"","","train",19332.0,"2021-11-24 04:33:54.087000",0.6562759222877101,0.7225202566956634,0.9750072825670165,0.6969344015565909,0.6075740810123237,0.6401144604477108,0.42888047233400167
17.0,"","","val",19332.0,"2021-11-24 04:35:01.440891",0.6254203873361939,0.6531782998030544,0.9621342194336661,0.6574029370790214,0.5636301515132861,0.5925195061114085,0.3840140870114508
18.0,0.033373329788446426,0.0019637626261744634,"train",19340.0,"2021-11-24 04:35:07.840910","","","","","","",""
18.0,0.08613140881061554,0.001963315388220384,"train",19360.0,"2021-11-24 04:35:18.100234","","","","","","",""
18.0,0.05154893174767494,0.0019628654588450443,"train",19380.0,"2021-11-24 04:35:27.497702","","","","","","",""
18.0,0.046325694769620895,0.001962412839305514,"train",19400.0,"2021-11-24 04:35:36.849001","","","","","","",""
18.0,0.05329728499054909,0.0019619575308663785,"train",19420.0,"2021-11-24 04:35:46.893129","","","","","","",""
18.0,0.04562510922551155,0.001961499534799737,"train",19440.0,"2021-11-24 04:35:56.282037","","","","","","",""
18.0,0.03600731119513512,0.001961038852385196,"train",19460.0,"2021-11-24 04:36:05.654503","","","","","","",""
18.0,0.07350754737854004,0.0019605754849098683,"train",19480.0,"2021-11-24 04:36:15.704027","","","","","","",""
18.0,0.08231425285339355,0.0019601094336683693,"train",19500.0,"2021-11-24 04:36:25.058510","","","","","","",""
18.0,0.04480038583278656,0.0019596406999628116,"train",19520.0,"2021-11-24 04:36:35.275818","","","","","","",""
18.0,0.04494431987404823,0.0019591692851028022,"train",19540.0,"2021-11-24 04:36:44.620384","","","","","","",""
18.0,0.04839802905917168,0.001958695190405441,"train",19560.0,"2021-11-24 04:36:54.042736","","","","","","",""
18.0,0.04035351797938347,0.001958218417195312,"train",19580.0,"2021-11-24 04:37:04.224132","","","","","","",""
18.0,0.03785281628370285,0.001957738966804486,"train",19600.0,"2021-11-24 04:37:13.579309","","","","","","",""
18.0,0.034754425287246704,0.001957256840572511,"train",19620.0,"2021-11-24 04:37:22.949229","","","","","","",""
18.0,0.06720610707998276,0.0019567720398464133,"train",19640.0,"2021-11-24 04:37:32.997687","","","","","","",""
18.0,0.026524938642978668,0.00195628456598069,"train",19660.0,"2021-11-24 04:37:42.399515","","","","","","",""
18.0,0.05988948419690132,0.001955794420337307,"train",19680.0,"2021-11-24 04:37:51.807833","","","","","","",""
18.0,0.03177109733223915,0.0019553016042856957,"train",19700.0,"2021-11-24 04:38:01.906461","","","","","","",""
18.0,0.06059182807803154,0.001954806119202748,"train",19720.0,"2021-11-24 04:38:11.266076","","","","","","",""
18.0,0.05345018208026886,0.001954307966472812,"train",19740.0,"2021-11-24 04:38:20.630960","","","","","","",""
18.0,0.04290974140167236,0.0019538071474876914,"train",19760.0,"2021-11-24 04:38:30.635393","","","","","","",""
18.0,0.043498244136571884,0.001953303663646636,"train",19780.0,"2021-11-24 04:38:40.038536","","","","","","",""
18.0,0.055138636380434036,0.0019527975163563436,"train",19800.0,"2021-11-24 04:38:50.033336","","","","","","",""
18.0,0.05157288536429405,0.0019522887070309524,"train",19820.0,"2021-11-24 04:38:59.440439","","","","","","",""
18.0,0.061486247926950455,0.0019517772370920379,"train",19840.0,"2021-11-24 04:39:08.800301","","","","","","",""
18.0,0.041692886501550674,0.0019512631079686104,"train",19860.0,"2021-11-24 04:39:18.904936","","","","","","",""
18.0,0.04751601815223694,0.001950746321097108,"train",19880.0,"2021-11-24 04:39:28.262854","","","","","","",""
18.0,0.07863257825374603,0.0019502268779213957,"train",19900.0,"2021-11-24 04:39:37.733181","","","","","","",""
18.0,0.07134179025888443,0.0019497047798927598,"train",19920.0,"2021-11-24 04:39:47.952619","","","","","","",""
18.0,0.05550888925790787,0.001949180028469903,"train",19940.0,"2021-11-24 04:39:57.383078","","","","","","",""
18.0,0.05068424344062805,0.0019486526251189435,"train",19960.0,"2021-11-24 04:40:06.782937","","","","","","",""
18.0,0.04452453553676605,0.0019481225713134064,"train",19980.0,"2021-11-24 04:40:16.818880","","","","","","",""
18.0,0.053471896797418594,0.0019475898685342235,"train",20000.0,"2021-11-24 04:40:26.260122","","","","","","",""
18.0,0.030147133395075798,0.0019470545182697272,"train",20020.0,"2021-11-24 04:40:35.660081","","","","","","",""
18.0,0.06880851089954376,0.001946516522015647,"train",20040.0,"2021-11-24 04:40:45.706817","","","","","","",""
18.0,0.03702908009290695,0.0019459758812751047,"train",20060.0,"2021-11-24 04:40:55.158047","","","","","","",""
18.0,0.04745112732052803,0.0019454325975586106,"train",20080.0,"2021-11-24 04:41:05.154391","","","","","","",""
18.0,0.05205090343952179,0.0019448866723840602,"train",20100.0,"2021-11-24 04:41:14.539094","","","","","","",""
18.0,0.042163439095020294,0.001944338107276728,"train",20120.0,"2021-11-24 04:41:23.939360","","","","","","",""
18.0,0.03928700089454651,0.0019437869037692644,"train",20140.0,"2021-11-24 04:41:34.031877","","","","","","",""
18.0,0.0786510482430458,0.0019432330634016912,"train",20160.0,"2021-11-24 04:41:43.411515","","","","","","",""
18.0,0.0449443943798542,0.0019426765877213986,"train",20180.0,"2021-11-24 04:41:52.800413","","","","","","",""
18.0,0.03289016708731651,0.0019421174782831383,"train",20200.0,"2021-11-24 04:42:02.792132","","","","","","",""
