"epoch","loss","lr","part","step","time","accuracy","auprc","auroc","challenge_metric","f_beta_measure","f_measure","g_beta_measure"
0.0,0.19593213498592377,8.000730236035311e-05,"train",20.0,"2021-12-03 11:04:12.200147","","","","","","",""
0.0,0.17945969104766846,8.002920933031948e-05,"train",40.0,"2021-12-03 11:04:15.948562","","","","","","",""
0.0,0.1697075068950653,8.006572057662293e-05,"train",60.0,"2021-12-03 11:04:19.709741","","","","","","",""
0.0,0.1371702253818512,8.011683554380914e-05,"train",80.0,"2021-12-03 11:04:23.568859","","","","","","",""
0.0,0.13833202421665192,8.018255345425274e-05,"train",100.0,"2021-12-03 11:04:27.206686","","","","","","",""
0.0,0.14525237679481506,8.026287330817079e-05,"train",120.0,"2021-12-03 11:04:30.856220","","","","","","",""
0.0,0.12883137166500092,8.03577938836373e-05,"train",140.0,"2021-12-03 11:04:34.792088","","","","","","",""
0.0,0.12472420930862427,8.04673137366021e-05,"train",160.0,"2021-12-03 11:04:38.494224","","","","","","",""
0.0,0.11797791719436646,8.059143120091187e-05,"train",180.0,"2021-12-03 11:04:42.194101","","","","","","",""
0.0,0.11550218611955643,8.073014438833613e-05,"train",200.0,"2021-12-03 11:04:46.108212","","","","","","",""
0.0,0.11587254703044891,8.088345118859724e-05,"train",220.0,"2021-12-03 11:04:49.785943","","","","","","",""
0.0,0.1133042722940445,8.10513492693996e-05,"train",240.0,"2021-12-03 11:04:53.733765","","","","","","",""
0.0,0.11807909607887268,8.123383607646804e-05,"train",260.0,"2021-12-03 11:04:57.460755","","","","","","",""
0.0,0.13162055611610413,8.143090883358495e-05,"train",280.0,"2021-12-03 11:05:01.245224","","","","","","",""
0.0,0.10998154431581497,8.164256454263295e-05,"train",300.0,"2021-12-03 11:05:05.025863","","","","","","",""
0.0,0.11645422130823135,8.186879998364088e-05,"train",320.0,"2021-12-03 11:05:08.519331","","","","","","",""
0.0,0.12236549705266953,8.210961171483213e-05,"train",340.0,"2021-12-03 11:05:12.006669","","","","","","",""
0.0,0.10106343775987625,8.236499607267717e-05,"train",360.0,"2021-12-03 11:05:15.834281","","","","","","",""
0.0,0.11452805250883102,8.26349491719505e-05,"train",380.0,"2021-12-03 11:05:19.469539","","","","","","",""
0.0,0.10938262194395065,8.291946690578713e-05,"train",400.0,"2021-12-03 11:05:23.314352","","","","","","",""
0.0,0.11851120740175247,8.321854494574774e-05,"train",420.0,"2021-12-03 11:05:27.004025","","","","","","",""
0.0,0.10707197338342667,8.353217874188293e-05,"train",440.0,"2021-12-03 11:05:30.657079","","","","","","",""
0.0,0.12838473916053772,8.38603635228035e-05,"train",460.0,"2021-12-03 11:05:34.440018","","","","","","",""
0.0,0.1222076490521431,8.420309429575212e-05,"train",480.0,"2021-12-03 11:05:37.996515","","","","","","",""
0.0,0.12633384764194489,8.456036584667914e-05,"train",500.0,"2021-12-03 11:05:41.425018","","","","","","",""
0.0,0.1187976747751236,8.493217274032315e-05,"train",520.0,"2021-12-03 11:05:45.143788","","","","","","",""
0.0,0.14059405028820038,8.531850932029235e-05,"train",540.0,"2021-12-03 11:05:48.692001","","","","","","",""
0.0,0.11319026350975037,8.571936970915212e-05,"train",560.0,"2021-12-03 11:05:52.365908","","","","","","",""
0.0,0.09986382722854614,8.613474780851246e-05,"train",580.0,"2021-12-03 11:05:55.796890","","","","","","",""
0.0,0.11909531056880951,8.656463729912224e-05,"train",600.0,"2021-12-03 11:05:59.198550","","","","","","",""
0.0,0.10607601702213287,8.700903164096468e-05,"train",620.0,"2021-12-03 11:06:02.812445","","","","","","",""
0.0,0.09842625260353088,8.746792407335769e-05,"train",640.0,"2021-12-03 11:06:06.313008","","","","","","",""
0.0,0.11853205412626266,8.794130761505497e-05,"train",660.0,"2021-12-03 11:06:09.787828","","","","","","",""
0.0,0.09771277010440826,8.842917506435462e-05,"train",680.0,"2021-12-03 11:06:13.529045","","","","","","",""
0.0,0.0989936888217926,8.893151899920645e-05,"train",700.0,"2021-12-03 11:06:17.081159","","","","","","",""
0.0,0.12690162658691406,8.944833177732632e-05,"train",720.0,"2021-12-03 11:06:20.571112","","","","","","",""
0.0,0.10499430447816849,8.997960553631186e-05,"train",740.0,"2021-12-03 11:06:24.238537","","","","","","",""
0.0,0.10007189214229584,9.052533219376224e-05,"train",760.0,"2021-12-03 11:06:27.714939","","","","","","",""
0.0,0.1039135530591011,9.108550344740104e-05,"train",780.0,"2021-12-03 11:06:31.369365","","","","","","",""
0.0,0.11160621792078018,9.166011077520208e-05,"train",800.0,"2021-12-03 11:06:34.880966","","","","","","",""
0.0,0.1000298410654068,9.224914543552059e-05,"train",820.0,"2021-12-03 11:06:38.378371","","","","","","",""
0.0,0.1517852395772934,9.285259846722417e-05,"train",840.0,"2021-12-03 11:06:42.023727","","","","","","",""
0.0,0.09398705512285233,9.34704606898307e-05,"train",860.0,"2021-12-03 11:06:45.597650","","","","","","",""
0.0,0.11076634377241135,9.410272270364735e-05,"train",880.0,"2021-12-03 11:06:49.172485","","","","","","",""
0.0,0.11984188854694366,9.474937488991348e-05,"train",900.0,"2021-12-03 11:06:52.877832","","","","","","",""
0.0,0.09995407611131668,9.541040741094719e-05,"train",920.0,"2021-12-03 11:06:56.417323","","","","","","",""
0.0,0.11396532505750656,9.608581021029522e-05,"train",940.0,"2021-12-03 11:07:00.092159","","","","","","",""
0.0,0.11325997859239578,9.677557301288509e-05,"train",960.0,"2021-12-03 11:07:03.650977","","","","","","",""
0.0,0.11972995102405548,9.747968532518238e-05,"train",980.0,"2021-12-03 11:07:07.217378","","","","","","",""
0.0,0.10858340561389923,9.819813643535029e-05,"train",1000.0,"2021-12-03 11:07:10.915076","","","","","","",""
0.0,0.12194014340639114,9.893091541341185e-05,"train",1020.0,"2021-12-03 11:07:14.468544","","","","","","",""
0.0,0.0919925644993782,9.967801111141644e-05,"train",1040.0,"2021-12-03 11:07:17.995707","","","","","","",""
0.0,0.09351477771997452,0.00010043941216361023,"train",1060.0,"2021-12-03 11:07:21.621302","","","","","","",""
0.0,"","","train",1074.0,"2021-12-03 11:09:11.320007",0.3402896019791894,0.3148567007740347,0.8503301557188079,0.35056737627530443,0.230099432571541,0.2185662511731873,0.13479078348188744
0.0,"","","val",1074.0,"2021-12-03 11:09:38.833238",0.34106459468862343,0.30983166141282825,0.8439026986646174,0.34346399266666966,0.2253782134424666,0.21221276546599335,0.13060751136246643
1.0,0.11316487193107605,0.00010121510698660771,"train",1080.0,"2021-12-03 11:09:41.858937","","","","","","",""
1.0,0.12981541454792023,0.00010200508377956928,"train",1100.0,"2021-12-03 11:09:45.703358","","","","","","",""
1.0,0.12307972460985184,0.00010280933052437993,"train",1120.0,"2021-12-03 11:09:49.340432","","","","","","",""
1.0,0.11229883879423141,0.00010362783498583223,"train",1140.0,"2021-12-03 11:09:52.925024","","","","","","",""
1.0,0.10307450592517853,0.0001044605847118124,"train",1160.0,"2021-12-03 11:09:56.643285","","","","","","",""
1.0,0.08393063396215439,0.0001053075670334907,"train",1180.0,"2021-12-03 11:10:00.254224","","","","","","",""
1.0,0.08545608073472977,0.00010616876906551181,"train",1200.0,"2021-12-03 11:10:03.885347","","","","","","",""
1.0,0.10062742978334427,0.0001070441777061941,"train",1220.0,"2021-12-03 11:10:07.662227","","","","","","",""
1.0,0.10488444566726685,0.00010793377963772563,"train",1240.0,"2021-12-03 11:10:11.296662","","","","","","",""
1.0,0.10547016561031342,0.0001088375613263698,"train",1260.0,"2021-12-03 11:10:14.903436","","","","","","",""
1.0,0.11251987516880035,0.00010975550902266908,"train",1280.0,"2021-12-03 11:10:18.627240","","","","","","",""
1.0,0.09183628857135773,0.00011068760876165474,"train",1300.0,"2021-12-03 11:10:22.277089","","","","","","",""
1.0,0.08444792032241821,0.0001116338463630598,"train",1320.0,"2021-12-03 11:10:26.108926","","","","","","",""
1.0,0.10388637334108353,0.00011259420743153455,"train",1340.0,"2021-12-03 11:10:29.685278","","","","","","",""
1.0,0.11548569798469543,0.00011356867735686535,"train",1360.0,"2021-12-03 11:10:33.197225","","","","","","",""
1.0,0.08896003663539886,0.00011455724131419621,"train",1380.0,"2021-12-03 11:10:36.840142","","","","","","",""
1.0,0.09270567446947098,0.00011555988426425654,"train",1400.0,"2021-12-03 11:10:40.341117","","","","","","",""
1.0,0.1149020716547966,0.00011657659095358746,"train",1420.0,"2021-12-03 11:10:43.870200","","","","","","",""
1.0,0.10272339731454849,0.00011760734591477516,"train",1440.0,"2021-12-03 11:10:47.606018","","","","","","",""
1.0,0.12187722325325012,0.00011865213346668618,"train",1460.0,"2021-12-03 11:10:51.096307","","","","","","",""
1.0,0.09963518381118774,0.00011971093771470502,"train",1480.0,"2021-12-03 11:10:54.746306","","","","","","",""
1.0,0.09874819219112396,0.0001207837425509777,"train",1500.0,"2021-12-03 11:10:58.362766","","","","","","",""
1.0,0.10849183797836304,0.00012187053165465503,"train",1520.0,"2021-12-03 11:11:01.999399","","","","","","",""
1.0,0.10534202307462692,0.000122971288492142,"train",1540.0,"2021-12-03 11:11:05.762692","","","","","","",""
1.0,0.1084764376282692,0.00012408599631734863,"train",1560.0,"2021-12-03 11:11:09.229941","","","","","","",""
1.0,0.07968440651893616,0.00012521463817194542,"train",1580.0,"2021-12-03 11:11:12.779064","","","","","","",""
1.0,0.09023109823465347,0.00012635719688562077,"train",1600.0,"2021-12-03 11:11:16.447130","","","","","","",""
1.0,0.08500027656555176,0.00012751365507634267,"train",1620.0,"2021-12-03 11:11:20.018260","","","","","","",""
1.0,0.11656039208173752,0.0001286839951506226,"train",1640.0,"2021-12-03 11:11:23.902251","","","","","","",""
1.0,0.10873463749885559,0.00012986819930378333,"train",1660.0,"2021-12-03 11:11:27.539048","","","","","","",""
1.0,0.08304980397224426,0.00013106624952023064,"train",1680.0,"2021-12-03 11:11:31.051322","","","","","","",""
1.0,0.10159303992986679,0.00013227812757372545,"train",1700.0,"2021-12-03 11:11:34.776389","","","","","","",""
1.0,0.11181503534317017,0.00013350381502766394,"train",1720.0,"2021-12-03 11:11:38.342046","","","","","","",""
1.0,0.08807728439569473,0.00013474329323535494,"train",1740.0,"2021-12-03 11:11:41.918443","","","","","","",""
1.0,0.09856156259775162,0.0001359965433403059,"train",1760.0,"2021-12-03 11:11:45.645091","","","","","","",""
1.0,0.08279629796743393,0.00013726354627650872,"train",1780.0,"2021-12-03 11:11:49.321166","","","","","","",""
1.0,0.1010756865143776,0.00013854428276873052,"train",1800.0,"2021-12-03 11:11:52.849575","","","","","","",""
1.0,0.09200982004404068,0.00013983873333280506,"train",1820.0,"2021-12-03 11:11:56.631004","","","","","","",""
1.0,0.1044979989528656,0.00014114687827593156,"train",1840.0,"2021-12-03 11:12:00.268061","","","","","","",""
1.0,0.09822077304124832,0.00014246869769697352,"train",1860.0,"2021-12-03 11:12:04.059399","","","","","","",""
1.0,0.08204561471939087,0.00014380417148676054,"train",1880.0,"2021-12-03 11:12:07.759865","","","","","","",""
1.0,0.09339410066604614,0.00014515327932839404,"train",1900.0,"2021-12-03 11:12:11.507845","","","","","","",""
1.0,0.09798108041286469,0.0001465160006975598,"train",1920.0,"2021-12-03 11:12:15.392476","","","","","","",""
1.0,0.0969565138220787,0.00014789231486283454,"train",1940.0,"2021-12-03 11:12:19.045136","","","","","","",""
1.0,0.10992436856031418,0.00014928220088600633,"train",1960.0,"2021-12-03 11:12:22.700769","","","","","","",""
1.0,0.09328457713127136,0.00015068563762239045,"train",1980.0,"2021-12-03 11:12:26.475460","","","","","","",""
1.0,0.1212974265217781,0.00015210260372115238,"train",2000.0,"2021-12-03 11:12:30.110733","","","","","","",""
1.0,0.09414441883563995,0.00015353307762563115,"train",2020.0,"2021-12-03 11:12:33.940391","","","","","","",""
1.0,0.08021976798772812,0.00015497703757366872,"train",2040.0,"2021-12-03 11:12:37.585438","","","","","","",""
1.0,0.10325176268815994,0.00015643446159794,"train",2060.0,"2021-12-03 11:12:41.230384","","","","","","",""
1.0,0.1106356531381607,0.0001579053275262887,"train",2080.0,"2021-12-03 11:12:45.043385","","","","","","",""
1.0,0.08339830487966537,0.00015938961298206183,"train",2100.0,"2021-12-03 11:12:48.721084","","","","","","",""
1.0,0.10300800949335098,0.00016088729538445297,"train",2120.0,"2021-12-03 11:12:52.361010","","","","","","",""
1.0,0.10815277695655823,0.000162398351948844,"train",2140.0,"2021-12-03 11:12:56.163134","","","","","","",""
1.0,"","","train",2148.0,"2021-12-03 11:14:42.109252",0.42980426398893984,0.40247740203422844,0.9007727810193015,0.4512167079916923,0.3133330087718571,0.30870860367804354,0.19208975956401492
1.0,"","","val",2148.0,"2021-12-03 11:15:09.524278",0.4233445436622985,0.3863128082224204,0.8918977849218643,0.43803168232430095,0.3035777420382433,0.2954888834650547,0.18283813567865018
2.0,0.08951675146818161,0.00016392275968715297,"train",2160.0,"2021-12-03 11:15:13.620985","","","","","","",""
2.0,0.08376660943031311,0.00016546049540818223,"train",2180.0,"2021-12-03 11:15:17.520128","","","","","","",""
2.0,0.07935406267642975,0.00016701153571797313,"train",2200.0,"2021-12-03 11:15:21.150299","","","","","","",""
2.0,0.0943288579583168,0.00016857585702016015,"train",2220.0,"2021-12-03 11:15:24.747469","","","","","","",""
2.0,0.09883593022823334,0.00017015343551633126,"train",2240.0,"2021-12-03 11:15:28.494332","","","","","","",""
2.0,0.0935392677783966,0.0001717442472063892,"train",2260.0,"2021-12-03 11:15:32.031253","","","","","","",""
2.0,0.11076107621192932,0.00017334826788891681,"train",2280.0,"2021-12-03 11:15:35.566823","","","","","","",""
2.0,0.08092031627893448,0.00017496547316154555,"train",2300.0,"2021-12-03 11:15:39.281415","","","","","","",""
2.0,0.08975627273321152,0.00017659583842132573,"train",2320.0,"2021-12-03 11:15:42.906917","","","","","","",""
2.0,0.10332322865724564,0.00017823933886510217,"train",2340.0,"2021-12-03 11:15:46.517827","","","","","","",""
2.0,0.07210066169500351,0.00017989594948989015,"train",2360.0,"2021-12-03 11:15:50.447057","","","","","","",""
2.0,0.06795279681682587,0.00018156564509325753,"train",2380.0,"2021-12-03 11:15:53.962546","","","","","","",""
2.0,0.12005364149808884,0.0001832484002737059,"train",2400.0,"2021-12-03 11:15:57.709813","","","","","","",""
2.0,0.11633580178022385,0.00018494418943105877,"train",2420.0,"2021-12-03 11:16:01.279538","","","","","","",""
2.0,0.10522312670946121,0.00018665298676685078,"train",2440.0,"2021-12-03 11:16:04.707892","","","","","","",""
2.0,0.08554739505052567,0.0001883747662847191,"train",2460.0,"2021-12-03 11:16:08.442339","","","","","","",""
2.0,0.0872960314154625,0.00019010950179080112,"train",2480.0,"2021-12-03 11:16:12.056439","","","","","","",""
2.0,0.09292259812355042,0.00019185716689412995,"train",2500.0,"2021-12-03 11:16:15.863657","","","","","","",""
2.0,0.12037639319896698,0.00019361773500703797,"train",2520.0,"2021-12-03 11:16:19.323995","","","","","","",""
2.0,0.0941801369190216,0.00019539117934556168,"train",2540.0,"2021-12-03 11:16:22.919060","","","","","","",""
2.0,0.09072054922580719,0.00019717747292984696,"train",2560.0,"2021-12-03 11:16:26.692803","","","","","","",""
2.0,0.08832594752311707,0.0001989765885845624,"train",2580.0,"2021-12-03 11:16:30.395603","","","","","","",""
2.0,0.06677559018135071,0.00020078849893931014,"train",2600.0,"2021-12-03 11:16:33.960308","","","","","","",""
2.0,0.10878060013055801,0.0002026131764290434,"train",2620.0,"2021-12-03 11:16:37.645266","","","","","","",""
2.0,0.09306000173091888,0.00020445059329448614,"train",2640.0,"2021-12-03 11:16:41.181991","","","","","","",""
2.0,0.08828432857990265,0.00020630072158255497,"train",2660.0,"2021-12-03 11:16:44.766714","","","","","","",""
2.0,0.0989435687661171,0.00020816353314678467,"train",2680.0,"2021-12-03 11:16:48.560609","","","","","","",""
2.0,0.07180577516555786,0.00021003899964775505,"train",2700.0,"2021-12-03 11:16:52.024214","","","","","","",""
2.0,0.10802426189184189,0.00021192709255352473,"train",2720.0,"2021-12-03 11:16:55.700150","","","","","","",""
2.0,0.0848100334405899,0.00021382778314006255,"train",2740.0,"2021-12-03 11:16:59.144976","","","","","","",""
2.0,0.08206148445606232,0.00021574104249168615,"train",2760.0,"2021-12-03 11:17:02.661516","","","","","","",""
2.0,0.11245599389076233,0.00021766684150150133,"train",2780.0,"2021-12-03 11:17:06.167544","","","","","","",""
2.0,0.08233659714460373,0.00021960515087184485,"train",2800.0,"2021-12-03 11:17:09.682675","","","","","","",""
2.0,0.08630701899528503,0.00022155594111472978,"train",2820.0,"2021-12-03 11:17:13.173993","","","","","","",""
2.0,0.10002666711807251,0.0002235191825522959,"train",2840.0,"2021-12-03 11:17:16.918480","","","","","","",""
2.0,0.11540494859218597,0.00022549484531725838,"train",2860.0,"2021-12-03 11:17:20.481194","","","","","","",""
2.0,0.09111666679382324,0.00022748289935336434,"train",2880.0,"2021-12-03 11:17:23.954422","","","","","","",""
2.0,0.09527527540922165,0.00022948331441584964,"train",2900.0,"2021-12-03 11:17:27.601805","","","","","","",""
2.0,0.11469557136297226,0.00023149606007189785,"train",2920.0,"2021-12-03 11:17:31.209003","","","","","","",""
2.0,0.10002677887678146,0.00023352110570110476,"train",2940.0,"2021-12-03 11:17:34.853691","","","","","","",""
2.0,0.08462323248386383,0.00023555842049594305,"train",2960.0,"2021-12-03 11:17:38.269503","","","","","","",""
2.0,0.107382632791996,0.00023760797346223305,"train",2980.0,"2021-12-03 11:17:41.712946","","","","","","",""
2.0,0.07486560195684433,0.00023966973341961028,"train",3000.0,"2021-12-03 11:17:45.471878","","","","","","",""
2.0,0.07653278857469559,0.0002417436690020044,"train",3020.0,"2021-12-03 11:17:49.085920","","","","","","",""
2.0,0.08706187456846237,0.00024382974865811325,"train",3040.0,"2021-12-03 11:17:52.818797","","","","","","",""
2.0,0.08516616374254227,0.000245927940651884,"train",3060.0,"2021-12-03 11:17:56.282211","","","","","","",""
2.0,0.08057418465614319,0.0002480382130629953,"train",3080.0,"2021-12-03 11:17:59.791861","","","","","","",""
2.0,0.06860561668872833,0.0002501605337873443,"train",3100.0,"2021-12-03 11:18:03.463036","","","","","","",""
2.0,0.08372429758310318,0.0002522948705375337,"train",3120.0,"2021-12-03 11:18:06.990069","","","","","","",""
2.0,0.08080613613128662,0.00025444119084336303,"train",3140.0,"2021-12-03 11:18:10.508281","","","","","","",""
2.0,0.104288250207901,0.00025659946205232364,"train",3160.0,"2021-12-03 11:18:14.038095","","","","","","",""
2.0,0.0933917760848999,0.0002587696513300941,"train",3180.0,"2021-12-03 11:18:17.547874","","","","","","",""
2.0,0.08684521168470383,0.0002609517256610412,"train",3200.0,"2021-12-03 11:18:20.983440","","","","","","",""
2.0,0.08036037534475327,0.00026314565184872084,"train",3220.0,"2021-12-03 11:18:24.595055","","","","","","",""
2.0,"","","train",3222.0,"2021-12-03 11:20:10.424012",0.42949865386014696,0.45440717689773125,0.9205122463410602,0.45231116328625937,0.3416580769848588,0.3446750197726881,0.20823903611369562
2.0,"","","val",3222.0,"2021-12-03 11:20:37.682156",0.4276353937144845,0.4338153648728579,0.9109997763236778,0.44072534597571383,0.3283616873087418,0.3259456159876727,0.19809484082872922
3.0,0.07313336431980133,0.0002653513965163838,"train",3240.0,"2021-12-03 11:20:42.813143","","","","","","",""
3.0,0.0919717326760292,0.0002675689261074836,"train",3260.0,"2021-12-03 11:20:46.647828","","","","","","",""
3.0,0.08163367956876755,0.00026979820688618605,"train",3280.0,"2021-12-03 11:20:50.219555","","","","","","",""
3.0,0.09004626423120499,0.00027203920493788433,"train",3300.0,"2021-12-03 11:20:53.708515","","","","","","",""
3.0,0.09383998811244965,0.00027429188616971277,"train",3320.0,"2021-12-03 11:20:57.386494","","","","","","",""
3.0,0.0823560357093811,0.0002765562163110668,"train",3340.0,"2021-12-03 11:21:00.892855","","","","","","",""
3.0,0.09882718324661255,0.00027883216091412503,"train",3360.0,"2021-12-03 11:21:04.451230","","","","","","",""
3.0,0.07741891592741013,0.0002811196853543707,"train",3380.0,"2021-12-03 11:21:08.226759","","","","","","",""
3.0,0.08382158726453781,0.00028341875483112134,"train",3400.0,"2021-12-03 11:21:11.813519","","","","","","",""
3.0,0.07970291376113892,0.00028572933436805644,"train",3420.0,"2021-12-03 11:21:15.493208","","","","","","",""
3.0,0.07096295803785324,0.0002880513888137504,"train",3440.0,"2021-12-03 11:21:19.004370","","","","","","",""
3.0,0.08919380605220795,0.0002903848828422063,"train",3460.0,"2021-12-03 11:21:22.449586","","","","","","",""
3.0,0.08098751306533813,0.00029272978095339465,"train",3480.0,"2021-12-03 11:21:26.098703","","","","","","",""
3.0,0.08066505938768387,0.00029508604747379243,"train",3500.0,"2021-12-03 11:21:29.640271","","","","","","",""
3.0,0.08324356377124786,0.00029745364655692653,"train",3520.0,"2021-12-03 11:21:33.265086","","","","","","",""
3.0,0.07917535305023193,0.0002998325421839181,"train",3540.0,"2021-12-03 11:21:37.119709","","","","","","",""
3.0,0.08730446547269821,0.0003022226981640318,"train",3560.0,"2021-12-03 11:21:40.789988","","","","","","",""
3.0,0.09337594360113144,0.00030462407813522494,"train",3580.0,"2021-12-03 11:21:44.620280","","","","","","",""
3.0,0.08891148120164871,0.0003070366455647027,"train",3600.0,"2021-12-03 11:21:48.285662","","","","","","",""
3.0,0.10204222798347473,0.000309460363749471,"train",3620.0,"2021-12-03 11:21:51.924632","","","","","","",""
3.0,0.10833091288805008,0.0003118951958168978,"train",3640.0,"2021-12-03 11:21:55.575924","","","","","","",""
3.0,0.0753462165594101,0.0003143411047252722,"train",3660.0,"2021-12-03 11:21:59.157878","","","","","","",""
3.0,0.05619994178414345,0.0003167980532643691,"train",3680.0,"2021-12-03 11:22:02.769544","","","","","","",""
3.0,0.0858168751001358,0.0003192660040560141,"train",3700.0,"2021-12-03 11:22:06.489087","","","","","","",""
3.0,0.08737105876207352,0.0003217449195546528,"train",3720.0,"2021-12-03 11:22:09.968047","","","","","","",""
3.0,0.09679169952869415,0.00032423476204792244,"train",3740.0,"2021-12-03 11:22:13.457481","","","","","","",""
3.0,0.08785075694322586,0.0003267354936572248,"train",3760.0,"2021-12-03 11:22:17.144868","","","","","","",""
3.0,0.07520785182714462,0.0003292470763383026,"train",3780.0,"2021-12-03 11:22:20.697320","","","","","","",""
3.0,0.07675269991159439,0.0003317694718818192,"train",3800.0,"2021-12-03 11:22:24.341101","","","","","","",""
3.0,0.08805596083402634,0.00033430264191393853,"train",3820.0,"2021-12-03 11:22:27.836879","","","","","","",""
3.0,0.06798126548528671,0.0003368465478969097,"train",3840.0,"2021-12-03 11:22:31.333477","","","","","","",""
3.0,0.10815142840147018,0.0003394011511296533,"train",3860.0,"2021-12-03 11:22:34.978171","","","","","","",""
3.0,0.07807067781686783,0.0003419664127483496,"train",3880.0,"2021-12-03 11:22:38.416468","","","","","","",""
3.0,0.09024972468614578,0.00034454229372703074,"train",3900.0,"2021-12-03 11:22:41.962495","","","","","","",""
3.0,0.07216397672891617,0.00034712875487817314,"train",3920.0,"2021-12-03 11:22:45.641236","","","","","","",""
3.0,0.08504015952348709,0.00034972575685329526,"train",3940.0,"2021-12-03 11:22:49.159475","","","","","","",""
3.0,0.08736927807331085,0.0003523332601435541,"train",3960.0,"2021-12-03 11:22:52.880075","","","","","","",""
3.0,0.06765638291835785,0.00035495122508034916,"train",3980.0,"2021-12-03 11:22:56.454974","","","","","","",""
3.0,0.08732122927904129,0.0003575796118359231,"train",4000.0,"2021-12-03 11:22:59.975014","","","","","","",""
3.0,0.08057928085327148,0.00036021838042396906,"train",4020.0,"2021-12-03 11:23:03.695057","","","","","","",""
3.0,0.08096922934055328,0.0003628674907002389,"train",4040.0,"2021-12-03 11:23:07.253978","","","","","","",""
3.0,0.09428945183753967,0.00036552690236315395,"train",4060.0,"2021-12-03 11:23:10.783319","","","","","","",""
3.0,0.10860448330640793,0.00036819657495441773,"train",4080.0,"2021-12-03 11:23:14.485169","","","","","","",""
3.0,0.1065760925412178,0.0003708764678596317,"train",4100.0,"2021-12-03 11:23:18.004153","","","","","","",""
3.0,0.0893939882516861,0.00037356654030891293,"train",4120.0,"2021-12-03 11:23:21.817412","","","","","","",""
3.0,0.08913251757621765,0.0003762667513775148,"train",4140.0,"2021-12-03 11:23:25.436854","","","","","","",""
3.0,0.08190670609474182,0.0003789770599864498,"train",4160.0,"2021-12-03 11:23:29.033223","","","","","","",""
3.0,0.10429349541664124,0.000381697424903113,"train",4180.0,"2021-12-03 11:23:32.821744","","","","","","",""
3.0,0.09271901100873947,0.0003844278047419108,"train",4200.0,"2021-12-03 11:23:36.434916","","","","","","",""
3.0,0.08146020025014877,0.0003871681579648903,"train",4220.0,"2021-12-03 11:23:39.968138","","","","","","",""
3.0,0.060483209788799286,0.0003899184428823709,"train",4240.0,"2021-12-03 11:23:43.602746","","","","","","",""
3.0,0.09467577189207077,0.0003926786176535783,"train",4260.0,"2021-12-03 11:23:47.051933","","","","","","",""
3.0,0.09887726604938507,0.0003954486402872818,"train",4280.0,"2021-12-03 11:23:50.610491","","","","","","",""
3.0,"","","train",4296.0,"2021-12-03 11:25:37.719411",0.47448155424579785,0.498029030768467,0.935347029661427,0.5185130821279619,0.38315370378466895,0.3904420933459884,0.246276988256746
3.0,"","","val",4296.0,"2021-12-03 11:26:04.946512",0.4613243650701612,0.4746587624691081,0.9252860011190145,0.4979578182125837,0.3654850777161551,0.36947707761013826,0.2318043491990959
4.0,0.0771029144525528,0.0003982284686424324,"train",4300.0,"2021-12-03 11:26:07.693585","","","","","","",""
4.0,0.08695775270462036,0.0004010180604288045,"train",4320.0,"2021-12-03 11:26:11.268131","","","","","","",""
4.0,0.08734706789255142,0.00040381737320763873,"train",4340.0,"2021-12-03 11:26:15.000587","","","","","","",""
4.0,0.08078201115131378,0.0004066263643922878,"train",4360.0,"2021-12-03 11:26:18.482349","","","","","","",""
4.0,0.07774821668863297,0.0004094449912488646,"train",4380.0,"2021-12-03 11:26:21.985806","","","","","","",""
4.0,0.09723638743162155,0.0004122732108968923,"train",4400.0,"2021-12-03 11:26:25.636666","","","","","","",""
4.0,0.07903056591749191,0.0004151109803099558,"train",4420.0,"2021-12-03 11:26:29.149871","","","","","","",""
4.0,0.08270306885242462,0.00041795825631635764,"train",4440.0,"2021-12-03 11:26:32.677236","","","","","","",""
4.0,0.08727163821458817,0.0004208149955997739,"train",4460.0,"2021-12-03 11:26:36.347397","","","","","","",""
4.0,0.08507761359214783,0.0004236811546999141,"train",4480.0,"2021-12-03 11:26:39.849581","","","","","","",""
4.0,0.1057196706533432,0.0004265566900131805,"train",4500.0,"2021-12-03 11:26:43.462830","","","","","","",""
4.0,0.06881856918334961,0.0004294415577933337,"train",4520.0,"2021-12-03 11:26:46.975580","","","","","","",""
4.0,0.09862899780273438,0.00043233571415215717,"train",4540.0,"2021-12-03 11:26:50.577891","","","","","","",""
4.0,0.11332354694604874,0.0004352391150601242,"train",4560.0,"2021-12-03 11:26:54.223290","","","","","","",""
4.0,0.09292590618133545,0.0004381517163470684,"train",4580.0,"2021-12-03 11:26:57.672309","","","","","","",""
4.0,0.08681748062372208,0.00044107347370285683,"train",4600.0,"2021-12-03 11:27:01.063229","","","","","","",""
4.0,0.10721277445554733,0.00044400434267806194,"train",4620.0,"2021-12-03 11:27:04.711484","","","","","","",""
4.0,0.08284752815961838,0.00044694427868463907,"train",4640.0,"2021-12-03 11:27:08.158433","","","","","","",""
4.0,0.07121492177248001,0.00044989323699660467,"train",4660.0,"2021-12-03 11:27:11.780262","","","","","","",""
4.0,0.07675517350435257,0.0004528511727507165,"train",4680.0,"2021-12-03 11:27:15.260663","","","","","","",""
4.0,0.07770393788814545,0.00045581804094715645,"train",4700.0,"2021-12-03 11:27:18.770299","","","","","","",""
4.0,0.0882008746266365,0.00045879379645021425,"train",4720.0,"2021-12-03 11:27:22.575194","","","","","","",""
4.0,0.07895656675100327,0.0004617783939889759,"train",4740.0,"2021-12-03 11:27:26.192574","","","","","","",""
4.0,0.10244034230709076,0.0004647717881580103,"train",4760.0,"2021-12-03 11:27:29.687917","","","","","","",""
4.0,0.08414402604103088,0.0004677739334180617,"train",4780.0,"2021-12-03 11:27:33.366068","","","","","","",""
4.0,0.09026890993118286,0.00047078478409674144,"train",4800.0,"2021-12-03 11:27:36.890797","","","","","","",""
4.0,0.07960189878940582,0.00047380429438922305,"train",4820.0,"2021-12-03 11:27:40.553665","","","","","","",""
4.0,0.10645060986280441,0.00047683241835893946,"train",4840.0,"2021-12-03 11:27:44.066595","","","","","","",""
4.0,0.08232956379652023,0.0004798691099382815,"train",4860.0,"2021-12-03 11:27:47.553748","","","","","","",""
4.0,0.060316719114780426,0.0004829143229292986,"train",4880.0,"2021-12-03 11:27:51.237800","","","","","","",""
4.0,0.07952367514371872,0.0004859680110044023,"train",4900.0,"2021-12-03 11:27:54.672043","","","","","","",""
4.0,0.10279528051614761,0.0004890301277070699,"train",4920.0,"2021-12-03 11:27:58.234868","","","","","","",""
4.0,0.09657871723175049,0.0004921006264525525,"train",4940.0,"2021-12-03 11:28:02.020648","","","","","","",""
4.0,0.11887169629335403,0.0004951794605285824,"train",4960.0,"2021-12-03 11:28:05.591238","","","","","","",""
4.0,0.07354561239480972,0.0004982665830960853,"train",4980.0,"2021-12-03 11:28:09.064096","","","","","","",""
4.0,0.10113481432199478,0.0005013619471898913,"train",5000.0,"2021-12-03 11:28:12.854632","","","","","","",""
4.0,0.08757094293832779,0.0005044655057194504,"train",5020.0,"2021-12-03 11:28:16.417129","","","","","","",""
4.0,0.06460878998041153,0.0005075772114695486,"train",5040.0,"2021-12-03 11:28:20.128041","","","","","","",""
4.0,0.08291162550449371,0.0005106970171010257,"train",5060.0,"2021-12-03 11:28:23.651576","","","","","","",""
4.0,0.08757812529802322,0.0005138248751514966,"train",5080.0,"2021-12-03 11:28:27.168281","","","","","","",""
4.0,0.11864719539880753,0.0005169607380360731,"train",5100.0,"2021-12-03 11:28:30.940461","","","","","","",""
4.0,0.0924304872751236,0.000520104558048086,"train",5120.0,"2021-12-03 11:28:34.441817","","","","","","",""
4.0,0.06655624508857727,0.0005232562873598136,"train",5140.0,"2021-12-03 11:28:37.942988","","","","","","",""
4.0,0.06660512834787369,0.0005264158780232072,"train",5160.0,"2021-12-03 11:28:41.723278","","","","","","",""
4.0,0.07313290983438492,0.0005295832819706228,"train",5180.0,"2021-12-03 11:28:45.343868","","","","","","",""
4.0,0.09600261598825455,0.0005327584510155488,"train",5200.0,"2021-12-03 11:28:49.065651","","","","","","",""
4.0,0.08468928188085556,0.000535941336853343,"train",5220.0,"2021-12-03 11:28:52.670019","","","","","","",""
4.0,0.08983665704727173,0.0005391318910619655,"train",5240.0,"2021-12-03 11:28:56.296479","","","","","","",""
4.0,0.05887668952345848,0.0005423300651027144,"train",5260.0,"2021-12-03 11:28:59.932824","","","","","","",""
4.0,0.0840485692024231,0.0005455358103209663,"train",5280.0,"2021-12-03 11:29:03.400640","","","","","","",""
4.0,0.07259199768304825,0.0005487490779469157,"train",5300.0,"2021-12-03 11:29:06.943499","","","","","","",""
4.0,0.0789373442530632,0.000551969819096316,"train",5320.0,"2021-12-03 11:29:10.576073","","","","","","",""
4.0,0.07467608898878098,0.0005551979847712252,"train",5340.0,"2021-12-03 11:29:14.041678","","","","","","",""
4.0,0.07502918690443039,0.0005584335258607489,"train",5360.0,"2021-12-03 11:29:17.723004","","","","","","",""
4.0,"","","train",5370.0,"2021-12-03 11:31:04.373119",0.5452084697664266,0.5394877210977443,0.9448647088331948,0.5892335472389373,0.4441146058659852,0.4465271890475372,0.29346371697882445
4.0,"","","val",5370.0,"2021-12-03 11:31:32.345262",0.5316595152499131,0.504243074593455,0.9328209559961026,0.5679688526484516,0.4250600085268989,0.42442275906427473,0.27758055651709335
5.0,0.093387670814991,0.0005616763931417894,"train",5380.0,"2021-12-03 11:31:36.168807","","","","","","",""
5.0,0.053490832448005676,0.0005649265372797939,"train",5400.0,"2021-12-03 11:31:39.788976","","","","","","",""
5.0,0.06965038925409317,0.0005681839088295046,"train",5420.0,"2021-12-03 11:31:43.674190","","","","","","",""
5.0,0.11164215952157974,0.0005714484582357109,"train",5440.0,"2021-12-03 11:31:47.207661","","","","","","",""
5.0,0.08577782660722733,0.0005747201358340048,"train",5460.0,"2021-12-03 11:31:50.798277","","","","","","",""
5.0,0.06471811980009079,0.0005779988918515344,"train",5480.0,"2021-12-03 11:31:54.476225","","","","","","",""
5.0,0.10638166218996048,0.0005812846764077623,"train",5500.0,"2021-12-03 11:31:57.997131","","","","","","",""
5.0,0.0656704306602478,0.0005845774395152243,"train",5520.0,"2021-12-03 11:32:01.496572","","","","","","",""
5.0,0.055955953896045685,0.0005878771310802895,"train",5540.0,"2021-12-03 11:32:05.300798","","","","","","",""
5.0,0.09601389616727829,0.0005911837009039229,"train",5560.0,"2021-12-03 11:32:08.950046","","","","","","",""
5.0,0.07126690447330475,0.0005944970986824485,"train",5580.0,"2021-12-03 11:32:12.682457","","","","","","",""
5.0,0.06602335721254349,0.000597817274008315,"train",5600.0,"2021-12-03 11:32:16.234592","","","","","","",""
5.0,0.06774507462978363,0.0006011441763708635,"train",5620.0,"2021-12-03 11:32:19.691653","","","","","","",""
5.0,0.07436580210924149,0.0006044777551570929,"train",5640.0,"2021-12-03 11:32:23.487791","","","","","","",""
5.0,0.10201355814933777,0.000607817959652434,"train",5660.0,"2021-12-03 11:32:27.093253","","","","","","",""
5.0,0.08095163851976395,0.0006111647390415189,"train",5680.0,"2021-12-03 11:32:30.632213","","","","","","",""
5.0,0.10248345881700516,0.0006145180424089525,"train",5700.0,"2021-12-03 11:32:34.299617","","","","","","",""
5.0,0.0776367038488388,0.0006178778187400902,"train",5720.0,"2021-12-03 11:32:37.939422","","","","","","",""
5.0,0.09504955261945724,0.0006212440169218129,"train",5740.0,"2021-12-03 11:32:41.760268","","","","","","",""
5.0,0.07434403896331787,0.0006246165857433027,"train",5760.0,"2021-12-03 11:32:45.355916","","","","","","",""
5.0,0.06949814409017563,0.0006279954738968251,"train",5780.0,"2021-12-03 11:32:48.854324","","","","","","",""
5.0,0.12919726967811584,0.0006313806299785075,"train",5800.0,"2021-12-03 11:32:52.568970","","","","","","",""
5.0,0.07210969179868698,0.0006347720024891209,"train",5820.0,"2021-12-03 11:32:56.211280","","","","","","",""
5.0,0.08413189649581909,0.0006381695398348657,"train",5840.0,"2021-12-03 11:32:59.806566","","","","","","",""
5.0,0.08585689961910248,0.0006415731903281542,"train",5860.0,"2021-12-03 11:33:03.468349","","","","","","",""
5.0,0.12457047402858734,0.0006449829021883979,"train",5880.0,"2021-12-03 11:33:06.954986","","","","","","",""
5.0,0.09918012470006943,0.0006483986235427956,"train",5900.0,"2021-12-03 11:33:10.571437","","","","","","",""
5.0,0.12747547030448914,0.0006518203024271213,"train",5920.0,"2021-12-03 11:33:14.037769","","","","","","",""
5.0,0.066754050552845,0.0006552478867865169,"train",5940.0,"2021-12-03 11:33:17.475982","","","","","","",""
5.0,0.07660824805498123,0.0006586813244762815,"train",5960.0,"2021-12-03 11:33:21.199427","","","","","","",""
5.0,0.08950340002775192,0.0006621205632626672,"train",5980.0,"2021-12-03 11:33:24.663357","","","","","","",""
5.0,0.11556461453437805,0.0006655655508236717,"train",6000.0,"2021-12-03 11:33:28.252344","","","","","","",""
5.0,0.06480024755001068,0.0006690162347498356,"train",6020.0,"2021-12-03 11:33:31.999967","","","","","","",""
5.0,0.08522100746631622,0.0006724725625450389,"train",6040.0,"2021-12-03 11:33:35.622801","","","","","","",""
5.0,0.06982435286045074,0.0006759344816273003,"train",6060.0,"2021-12-03 11:33:39.087333","","","","","","",""
5.0,0.08611864596605301,0.0006794019393295771,"train",6080.0,"2021-12-03 11:33:42.715885","","","","","","",""
5.0,0.07541486620903015,0.0006828748829005654,"train",6100.0,"2021-12-03 11:33:46.172984","","","","","","",""
5.0,0.06908130645751953,0.0006863532595055041,"train",6120.0,"2021-12-03 11:33:49.993840","","","","","","",""
5.0,0.07515385001897812,0.0006898370162269777,"train",6140.0,"2021-12-03 11:33:53.620097","","","","","","",""
5.0,0.07835381478071213,0.0006933261000657217,"train",6160.0,"2021-12-03 11:33:57.226443","","","","","","",""
5.0,0.06906663626432419,0.000696820457941429,"train",6180.0,"2021-12-03 11:34:01.040335","","","","","","",""
5.0,0.09386730194091797,0.000700320036693557,"train",6200.0,"2021-12-03 11:34:04.561211","","","","","","",""
5.0,0.07558875530958176,0.0007038247830821358,"train",6220.0,"2021-12-03 11:34:08.113503","","","","","","",""
5.0,0.09137533605098724,0.0007073346437885815,"train",6240.0,"2021-12-03 11:34:11.900494","","","","","","",""
5.0,0.08392386883497238,0.000710849565416502,"train",6260.0,"2021-12-03 11:34:15.515205","","","","","","",""
5.0,0.07338324934244156,0.0007143694944925134,"train",6280.0,"2021-12-03 11:34:19.299983","","","","","","",""
5.0,0.06092067062854767,0.0007178943774670524,"train",6300.0,"2021-12-03 11:34:22.793856","","","","","","",""
5.0,0.0751647874712944,0.0007214241607151901,"train",6320.0,"2021-12-03 11:34:26.323951","","","","","","",""
5.0,0.10724559426307678,0.000724958790537449,"train",6340.0,"2021-12-03 11:34:29.979744","","","","","","",""
5.0,0.08191708475351334,0.0007284982131606195,"train",6360.0,"2021-12-03 11:34:33.574924","","","","","","",""
5.0,0.07371192425489426,0.0007320423747385781,"train",6380.0,"2021-12-03 11:34:37.142840","","","","","","",""
5.0,0.10198980569839478,0.0007355912213531054,"train",6400.0,"2021-12-03 11:34:40.758464","","","","","","",""
5.0,0.07904031872749329,0.000739144699014708,"train",6420.0,"2021-12-03 11:34:44.231139","","","","","","",""
5.0,0.06833413243293762,0.0007427027536634401,"train",6440.0,"2021-12-03 11:34:47.974961","","","","","","",""
5.0,"","","train",6444.0,"2021-12-03 11:36:33.412059",0.5611584079167576,0.5655508508527662,0.9503513907678348,0.605781671978574,0.4487331459735519,0.4624722371970097,0.3019940574123303
5.0,"","","val",6444.0,"2021-12-03 11:37:00.769017",0.54650353705207,0.5319123666215609,0.9384539866590286,0.5833192550933574,0.43366124103348713,0.44175275916268153,0.2853550742993164
6.0,0.0751510038971901,0.0007462653311697235,"train",6460.0,"2021-12-03 11:37:05.692021","","","","","","",""
6.0,0.07401666045188904,0.0007498323773351733,"train",6480.0,"2021-12-03 11:37:09.267352","","","","","","",""
6.0,0.07107456773519516,0.0007534038378934223,"train",6500.0,"2021-12-03 11:37:13.178955","","","","","","",""
6.0,0.0881226435303688,0.0007569796585109453,"train",6520.0,"2021-12-03 11:37:16.718217","","","","","","",""
6.0,0.09612665325403214,0.0007605597847878862,"train",6540.0,"2021-12-03 11:37:20.236823","","","","","","",""
6.0,0.06232517212629318,0.0007641441622588871,"train",6560.0,"2021-12-03 11:37:23.994802","","","","","","",""
6.0,0.08959218859672546,0.0007677327363939143,"train",6580.0,"2021-12-03 11:37:27.554502","","","","","","",""
6.0,0.09125390648841858,0.0007713254525990895,"train",6600.0,"2021-12-03 11:37:31.019212","","","","","","",""
6.0,0.06373090296983719,0.0007749222562175211,"train",6620.0,"2021-12-03 11:37:34.789336","","","","","","",""
6.0,0.07628057897090912,0.000778523092530133,"train",6640.0,"2021-12-03 11:37:38.415619","","","","","","",""
6.0,0.06911661475896835,0.0007821279067564996,"train",6660.0,"2021-12-03 11:37:42.239964","","","","","","",""
6.0,0.07982120662927628,0.0007857366440556786,"train",6680.0,"2021-12-03 11:37:45.728778","","","","","","",""
6.0,0.088722363114357,0.0007893492495270442,"train",6700.0,"2021-12-03 11:37:49.178910","","","","","","",""
6.0,0.11559409648180008,0.0007929656682111239,"train",6720.0,"2021-12-03 11:37:52.831682","","","","","","",""
6.0,0.0946386456489563,0.0007965858450904332,"train",6740.0,"2021-12-03 11:37:56.336250","","","","","","",""
6.0,0.0643056184053421,0.000800209725090314,"train",6760.0,"2021-12-03 11:37:59.901077","","","","","","",""
6.0,0.08897366374731064,0.0008038372530797706,"train",6780.0,"2021-12-03 11:38:03.587219","","","","","","",""
6.0,0.08131269365549088,0.0008074683738723109,"train",6800.0,"2021-12-03 11:38:07.055765","","","","","","",""
6.0,0.06793885678052902,0.0008111030322267832,"train",6820.0,"2021-12-03 11:38:10.650557","","","","","","",""
6.0,0.0634799674153328,0.0008147411728482187,"train",6840.0,"2021-12-03 11:38:14.229462","","","","","","",""
6.0,0.07180362194776535,0.0008183827403886721,"train",6860.0,"2021-12-03 11:38:17.690435","","","","","","",""
6.0,0.08209434151649475,0.0008220276794480633,"train",6880.0,"2021-12-03 11:38:21.451573","","","","","","",""
6.0,0.10145696997642517,0.0008256759345750203,"train",6900.0,"2021-12-03 11:38:24.994850","","","","","","",""
6.0,0.0500301867723465,0.0008293274502677234,"train",6920.0,"2021-12-03 11:38:28.549815","","","","","","",""
6.0,0.07307475060224533,0.0008329821709747486,"train",6940.0,"2021-12-03 11:38:32.271921","","","","","","",""
6.0,0.04995770752429962,0.0008366400410959136,"train",6960.0,"2021-12-03 11:38:35.740257","","","","","","",""
6.0,0.06486035138368607,0.000840301004983123,"train",6980.0,"2021-12-03 11:38:39.318473","","","","","","",""
6.0,0.08593244850635529,0.0008439650069412147,"train",7000.0,"2021-12-03 11:38:43.092412","","","","","","",""
6.0,0.06804049015045166,0.0008476319912288095,"train",7020.0,"2021-12-03 11:38:46.673144","","","","","","",""
6.0,0.05681163817644119,0.0008513019020591544,"train",7040.0,"2021-12-03 11:38:50.279970","","","","","","",""
6.0,0.08770178258419037,0.0008549746836009771,"train",7060.0,"2021-12-03 11:38:53.729191","","","","","","",""
6.0,0.05937403067946434,0.0008586502799793306,"train",7080.0,"2021-12-03 11:38:57.199087","","","","","","",""
6.0,0.07908609509468079,0.0008623286352764453,"train",7100.0,"2021-12-03 11:39:00.852651","","","","","","",""
6.0,0.07991687208414078,0.0008660096935325802,"train",7120.0,"2021-12-03 11:39:04.381945","","","","","","",""
6.0,0.060486800968647,0.0008696933987468731,"train",7140.0,"2021-12-03 11:39:07.931737","","","","","","",""
6.0,0.0947667732834816,0.0008733796948781924,"train",7160.0,"2021-12-03 11:39:11.764163","","","","","","",""
6.0,0.09169194102287292,0.0008770685258459915,"train",7180.0,"2021-12-03 11:39:15.398353","","","","","","",""
6.0,0.10075369477272034,0.0008807598355311595,"train",7200.0,"2021-12-03 11:39:19.154987","","","","","","",""
6.0,0.06561022996902466,0.0008844535677768764,"train",7220.0,"2021-12-03 11:39:22.780539","","","","","","",""
6.0,0.07696667313575745,0.0008881496663894681,"train",7240.0,"2021-12-03 11:39:26.404777","","","","","","",""
6.0,0.057868875563144684,0.0008918480751392592,"train",7260.0,"2021-12-03 11:39:30.161104","","","","","","",""
6.0,0.0887448787689209,0.00089554873776143,"train",7280.0,"2021-12-03 11:39:33.742131","","","","","","",""
6.0,0.06341475993394852,0.0008992515979568724,"train",7300.0,"2021-12-03 11:39:37.291545","","","","","","",""
6.0,0.08752887696027756,0.0009029565993930457,"train",7320.0,"2021-12-03 11:39:40.900190","","","","","","",""
6.0,0.06382249295711517,0.0009066636857048339,"train",7340.0,"2021-12-03 11:39:44.370277","","","","","","",""
6.0,0.06752873957157135,0.0009103728004954039,"train",7360.0,"2021-12-03 11:39:48.137632","","","","","","",""
6.0,0.0625358372926712,0.0009140838873370617,"train",7380.0,"2021-12-03 11:39:51.751559","","","","","","",""
6.0,0.06619630753993988,0.0009177968897721136,"train",7400.0,"2021-12-03 11:39:55.346294","","","","","","",""
6.0,0.08441577106714249,0.0009215117513137218,"train",7420.0,"2021-12-03 11:39:59.108888","","","","","","",""
6.0,0.05812942609190941,0.0009252284154467663,"train",7440.0,"2021-12-03 11:40:02.606145","","","","","","",""
6.0,0.06391549110412598,0.0009289468256287042,"train",7460.0,"2021-12-03 11:40:06.183948","","","","","","",""
6.0,0.0678224042057991,0.0009326669252904287,"train",7480.0,"2021-12-03 11:40:09.897842","","","","","","",""
6.0,0.06515496224164963,0.0009363886578371307,"train",7500.0,"2021-12-03 11:40:13.450075","","","","","","",""
6.0,"","","train",7518.0,"2021-12-03 11:42:00.534132",0.5696863857964054,0.5881757634863383,0.9545093860672971,0.6397171155401717,0.5043127287620138,0.5042049194655476,0.3331446286129301
6.0,"","","val",7518.0,"2021-12-03 11:42:28.004771",0.5487649309984924,0.5457330180481855,0.9416693462097483,0.6131739415006037,0.4800370745639597,0.4784617414827711,0.3091906616182503
7.0,0.06757841259241104,0.0009401119666491604,"train",7520.0,"2021-12-03 11:42:30.755347","","","","","","",""
7.0,0.06576644629240036,0.0009438367950828869,"train",7540.0,"2021-12-03 11:42:34.391505","","","","","","",""
7.0,0.07400282472372055,0.000947563086471561,"train",7560.0,"2021-12-03 11:42:38.016341","","","","","","",""
7.0,0.10340306162834167,0.0009512907841261783,"train",7580.0,"2021-12-03 11:42:41.791559","","","","","","",""
7.0,0.06771260499954224,0.0009550198313363391,"train",7600.0,"2021-12-03 11:42:45.393065","","","","","","",""
7.0,0.06260703504085541,0.0009587501713711128,"train",7620.0,"2021-12-03 11:42:49.019735","","","","","","",""
7.0,0.06385454535484314,0.0009624817474799023,"train",7640.0,"2021-12-03 11:42:52.797699","","","","","","",""
7.0,0.0930643081665039,0.0009662145028933038,"train",7660.0,"2021-12-03 11:42:56.414694","","","","","","",""
7.0,0.06380967050790787,0.0009699483808239733,"train",7680.0,"2021-12-03 11:43:00.197636","","","","","","",""
7.0,0.08835722506046295,0.0009736833244674895,"train",7700.0,"2021-12-03 11:43:03.803953","","","","","","",""
7.0,0.0814998522400856,0.0009774192770032192,"train",7720.0,"2021-12-03 11:43:07.438971","","","","","","",""
7.0,0.06814800202846527,0.0009811561815951785,"train",7740.0,"2021-12-03 11:43:11.169590","","","","","","",""
7.0,0.07519178837537766,0.0009848939813929015,"train",7760.0,"2021-12-03 11:43:14.646341","","","","","","",""
7.0,0.08524154126644135,0.0009886326195323026,"train",7780.0,"2021-12-03 11:43:18.191839","","","","","","",""
7.0,0.08730389177799225,0.0009923720391365428,"train",7800.0,"2021-12-03 11:43:21.850984","","","","","","",""
7.0,0.0791100263595581,0.000996112183316893,"train",7820.0,"2021-12-03 11:43:25.348720","","","","","","",""
7.0,0.10358146578073502,0.0009998529951736029,"train",7840.0,"2021-12-03 11:43:28.916436","","","","","","",""
7.0,0.06798897683620453,0.0010035944177967638,"train",7860.0,"2021-12-03 11:43:32.770990","","","","","","",""
7.0,0.07578786462545395,0.0010073363942671744,"train",7880.0,"2021-12-03 11:43:36.405723","","","","","","",""
7.0,0.05274782329797745,0.0010110788676572094,"train",7900.0,"2021-12-03 11:43:40.130451","","","","","","",""
7.0,0.041281282901763916,0.0010148217810316822,"train",7920.0,"2021-12-03 11:43:43.566113","","","","","","",""
7.0,0.06536910682916641,0.0010185650774487127,"train",7940.0,"2021-12-03 11:43:47.084732","","","","","","",""
7.0,0.07082456350326538,0.0010223086999605951,"train",7960.0,"2021-12-03 11:43:50.764560","","","","","","",""
7.0,0.08420073986053467,0.0010260525916146609,"train",7980.0,"2021-12-03 11:43:54.344896","","","","","","",""
7.0,0.10214216262102127,0.0010297966954541469,"train",8000.0,"2021-12-03 11:43:57.881442","","","","","","",""
7.0,0.07324302196502686,0.001033540954519064,"train",8020.0,"2021-12-03 11:44:01.505593","","","","","","",""
7.0,0.0813366025686264,0.0010372853118470592,"train",8040.0,"2021-12-03 11:44:04.951550","","","","","","",""
7.0,0.06801749765872955,0.0010410297104742857,"train",8060.0,"2021-12-03 11:44:08.621324","","","","","","",""
7.0,0.06466585397720337,0.0010447740934362692,"train",8080.0,"2021-12-03 11:44:12.071043","","","","","","",""
7.0,0.09177340567111969,0.0010485184037687715,"train",8100.0,"2021-12-03 11:44:15.525598","","","","","","",""
7.0,0.05234775319695473,0.0010522625845086615,"train",8120.0,"2021-12-03 11:44:19.134170","","","","","","",""
7.0,0.0859750285744667,0.0010560065786947796,"train",8140.0,"2021-12-03 11:44:22.726944","","","","","","",""
7.0,0.09186213463544846,0.0010597503293688013,"train",8160.0,"2021-12-03 11:44:26.220804","","","","","","",""
7.0,0.08336223661899567,0.001063493779576111,"train",8180.0,"2021-12-03 11:44:29.896398","","","","","","",""
7.0,0.06797797232866287,0.0010672368723666614,"train",8200.0,"2021-12-03 11:44:33.367814","","","","","","",""
7.0,0.10105084627866745,0.0010709795507958426,"train",8220.0,"2021-12-03 11:44:37.054295","","","","","","",""
7.0,0.05136701092123985,0.0010747217579253504,"train",8240.0,"2021-12-03 11:44:40.693488","","","","","","",""
7.0,0.05782010406255722,0.0010784634368240487,"train",8260.0,"2021-12-03 11:44:44.321760","","","","","","",""
7.0,0.08081959187984467,0.0010822045305688382,"train",8280.0,"2021-12-03 11:44:48.068306","","","","","","",""
7.0,0.068544901907444,0.0010859449822455227,"train",8300.0,"2021-12-03 11:44:51.706491","","","","","","",""
7.0,0.04578579589724541,0.001089684734949672,"train",8320.0,"2021-12-03 11:44:55.184033","","","","","","",""
7.0,0.06394722312688828,0.00109342373178749,"train",8340.0,"2021-12-03 11:44:58.976324","","","","","","",""
7.0,0.10833434015512466,0.0010971619158766821,"train",8360.0,"2021-12-03 11:45:02.551293","","","","","","",""
7.0,0.07452141493558884,0.0011008992303473152,"train",8380.0,"2021-12-03 11:45:06.108888","","","","","","",""
7.0,0.09405763447284698,0.001104635618342687,"train",8400.0,"2021-12-03 11:45:09.738618","","","","","","",""
7.0,0.06970598548650742,0.001108371023020191,"train",8420.0,"2021-12-03 11:45:13.235115","","","","","","",""
7.0,0.07442224025726318,0.0011121053875521787,"train",8440.0,"2021-12-03 11:45:16.872925","","","","","","",""
7.0,0.08777488768100739,0.0011158386551268257,"train",8460.0,"2021-12-03 11:45:20.346255","","","","","","",""
7.0,0.053164299577474594,0.0011195707689489972,"train",8480.0,"2021-12-03 11:45:23.793971","","","","","","",""
7.0,0.054442986845970154,0.0011233016722411097,"train",8500.0,"2021-12-03 11:45:27.479113","","","","","","",""
7.0,0.06495796889066696,0.0011270313082439951,"train",8520.0,"2021-12-03 11:45:31.046116","","","","","","",""
7.0,0.0699046328663826,0.001130759620217767,"train",8540.0,"2021-12-03 11:45:34.671986","","","","","","",""
7.0,0.08422727882862091,0.0011344865514426794,"train",8560.0,"2021-12-03 11:45:38.430073","","","","","","",""
7.0,0.0809212476015091,0.0011382120452199938,"train",8580.0,"2021-12-03 11:45:42.002734","","","","","","",""
7.0,"","","train",8592.0,"2021-12-03 11:47:27.828280",0.5612020665065852,0.6144951436260135,0.9592588350936878,0.6313564306150055,0.5059078626129521,0.5186963001482806,0.33487709908076396
7.0,"","","val",8592.0,"2021-12-03 11:47:55.583175",0.5433723762031776,0.5643949472464558,0.9466439089599004,0.6052504845733573,0.4739017526052878,0.48401925480983043,0.30658214861132144
8.0,0.09737402200698853,0.001141936044872839,"train",8600.0,"2021-12-03 11:47:59.315650","","","","","","",""
8.0,0.05324198305606842,0.0011456584937470744,"train",8620.0,"2021-12-03 11:48:02.830712","","","","","","",""
8.0,0.05749504640698433,0.0011493793352121522,"train",8640.0,"2021-12-03 11:48:06.456520","","","","","","",""
8.0,0.08648496121168137,0.0011530985126619784,"train",8660.0,"2021-12-03 11:48:10.100042","","","","","","",""
8.0,0.08183377236127853,0.001156815969515773,"train",8680.0,"2021-12-03 11:48:13.652196","","","","","","",""
8.0,0.07973175495862961,0.001160531649218934,"train",8700.0,"2021-12-03 11:48:17.191344","","","","","","",""
8.0,0.061926715075969696,0.001164245495243894,"train",8720.0,"2021-12-03 11:48:20.772729","","","","","","",""
8.0,0.07400224357843399,0.0011679574510909817,"train",8740.0,"2021-12-03 11:48:24.245531","","","","","","",""
8.0,0.06823991239070892,0.0011716674602892828,"train",8760.0,"2021-12-03 11:48:27.879376","","","","","","",""
8.0,0.07474325597286224,0.0011753754663974968,"train",8780.0,"2021-12-03 11:48:31.402509","","","","","","",""
8.0,0.048396918922662735,0.0011790814130047968,"train",8800.0,"2021-12-03 11:48:34.910362","","","","","","",""
8.0,0.09487632662057877,0.001182785243731688,"train",8820.0,"2021-12-03 11:48:38.657260","","","","","","",""
8.0,0.08948621898889542,0.0011864869022308656,"train",8840.0,"2021-12-03 11:48:42.201421","","","","","","",""
8.0,0.06099461764097214,0.0011901863321880693,"train",8860.0,"2021-12-03 11:48:45.743673","","","","","","",""
8.0,0.05319904536008835,0.001193883477322945,"train",8880.0,"2021-12-03 11:48:49.424235","","","","","","",""
8.0,0.12756876647472382,0.0011975782813898961,"train",8900.0,"2021-12-03 11:48:52.909292","","","","","","",""
8.0,0.0922643318772316,0.0012012706881789417,"train",8920.0,"2021-12-03 11:48:56.352568","","","","","","",""
8.0,0.07234984636306763,0.001204960641516572,"train",8940.0,"2021-12-03 11:49:00.022068","","","","","","",""
8.0,0.05644078925251961,0.0012086480852666014,"train",8960.0,"2021-12-03 11:49:03.499969","","","","","","",""
8.0,0.07095807790756226,0.0012123329633310235,"train",8980.0,"2021-12-03 11:49:07.154195","","","","","","",""
8.0,0.07400177419185638,0.0012160152196508643,"train",9000.0,"2021-12-03 11:49:10.665502","","","","","","",""
8.0,0.06494365632534027,0.0012196947982070355,"train",9020.0,"2021-12-03 11:49:14.147554","","","","","","",""
8.0,0.05371430516242981,0.0012233716430211856,"train",9040.0,"2021-12-03 11:49:17.839073","","","","","","",""
8.0,0.09589590132236481,0.001227045698156553,"train",9060.0,"2021-12-03 11:49:21.392711","","","","","","",""
8.0,0.11246072500944138,0.0012307169077188148,"train",9080.0,"2021-12-03 11:49:24.849743","","","","","","",""
8.0,0.05461634323000908,0.0012343852158569401,"train",9100.0,"2021-12-03 11:49:28.442681","","","","","","",""
8.0,0.07092349976301193,0.0012380505667640377,"train",9120.0,"2021-12-03 11:49:31.871877","","","","","","",""
8.0,0.0692518875002861,0.0012417129046782046,"train",9140.0,"2021-12-03 11:49:35.523169","","","","","","",""
8.0,0.10027521848678589,0.0012453721738833758,"train",9160.0,"2021-12-03 11:49:39.063223","","","","","","",""
8.0,0.05674441158771515,0.001249028318710172,"train",9180.0,"2021-12-03 11:49:42.602421","","","","","","",""
8.0,0.09145605564117432,0.0012526812835367447,"train",9200.0,"2021-12-03 11:49:46.349963","","","","","","",""
8.0,0.05632631853222847,0.0012563310127896242,"train",9220.0,"2021-12-03 11:49:49.905063","","","","","","",""
8.0,0.06251832842826843,0.0012599774509445645,"train",9240.0,"2021-12-03 11:49:53.460627","","","","","","",""
8.0,0.06631378829479218,0.0012636205425273874,"train",9260.0,"2021-12-03 11:49:57.090669","","","","","","",""
8.0,0.07302605360746384,0.0012672602321148268,"train",9280.0,"2021-12-03 11:50:00.558814","","","","","","",""
8.0,0.08619242906570435,0.0012708964643353732,"train",9300.0,"2021-12-03 11:50:04.186201","","","","","","",""
8.0,0.06618945300579071,0.001274529183870114,"train",9320.0,"2021-12-03 11:50:07.629538","","","","","","",""
8.0,0.05348215252161026,0.0012781583354535748,"train",9340.0,"2021-12-03 11:50:11.213524","","","","","","",""
8.0,0.0820252075791359,0.0012817838638745646,"train",9360.0,"2021-12-03 11:50:14.956514","","","","","","",""
8.0,0.06149042770266533,0.001285405713977009,"train",9380.0,"2021-12-03 11:50:18.526363","","","","","","",""
8.0,0.059207983314991,0.0012890238306607947,"train",9400.0,"2021-12-03 11:50:22.160100","","","","","","",""
8.0,0.07251105457544327,0.001292638158882606,"train",9420.0,"2021-12-03 11:50:25.929456","","","","","","",""
8.0,0.08435157686471939,0.0012962486436567603,"train",9440.0,"2021-12-03 11:50:29.475768","","","","","","",""
8.0,0.07302244752645493,0.0012998552300560484,"train",9460.0,"2021-12-03 11:50:32.957449","","","","","","",""
8.0,0.06497657299041748,0.0013034578632125668,"train",9480.0,"2021-12-03 11:50:36.785675","","","","","","",""
8.0,0.07698719948530197,0.0013070564883185534,"train",9500.0,"2021-12-03 11:50:40.469148","","","","","","",""
8.0,0.10625813901424408,0.001310651050627223,"train",9520.0,"2021-12-03 11:50:44.194114","","","","","","",""
8.0,0.05432267487049103,0.001314241495453598,"train",9540.0,"2021-12-03 11:50:47.773238","","","","","","",""
8.0,0.07513326406478882,0.00131782776817534,"train",9560.0,"2021-12-03 11:50:51.419506","","","","","","",""
8.0,0.05535953864455223,0.0013214098142335837,"train",9580.0,"2021-12-03 11:50:55.225017","","","","","","",""
8.0,0.09081000089645386,0.001324987579133764,"train",9600.0,"2021-12-03 11:50:58.899785","","","","","","",""
8.0,0.09072615951299667,0.0013285610084464463,"train",9620.0,"2021-12-03 11:51:02.455445","","","","","","",""
8.0,0.09096810221672058,0.001332130047808155,"train",9640.0,"2021-12-03 11:51:06.189065","","","","","","",""
8.0,0.07808014005422592,0.001335694642922199,"train",9660.0,"2021-12-03 11:51:09.705089","","","","","","",""
8.0,"","","train",9666.0,"2021-12-03 11:52:54.996017",0.5964782070872444,0.6243819266420712,0.9606267797258697,0.6470856875666937,0.5133391295071783,0.5319928384374358,0.34856155516120363
8.0,"","","val",9666.0,"2021-12-03 11:53:22.702791",0.5670300359503653,0.5739947204426852,0.947608015352343,0.6108713206712052,0.47933341184304196,0.4947098479381747,0.316514474767092
9.0,0.12605425715446472,0.0013392547395594985,"train",9680.0,"2021-12-03 11:53:27.406376","","","","","","",""
9.0,0.0822761207818985,0.001342810283559412,"train",9700.0,"2021-12-03 11:53:30.881034","","","","","","",""
9.0,0.09022900462150574,0.0013463612208305564,"train",9720.0,"2021-12-03 11:53:34.363460","","","","","","",""
9.0,0.07558061927556992,0.0013499074973516321,"train",9740.0,"2021-12-03 11:53:37.977578","","","","","","",""
9.0,0.09477227926254272,0.0013534490591722464,"train",9760.0,"2021-12-03 11:53:41.462687","","","","","","",""
9.0,0.08424186706542969,0.0013569858524137305,"train",9780.0,"2021-12-03 11:53:44.945764","","","","","","",""
9.0,0.07057207822799683,0.001360517823269962,"train",9800.0,"2021-12-03 11:53:48.594840","","","","","","",""
9.0,0.05073437839746475,0.0013640449180081834,"train",9820.0,"2021-12-03 11:53:52.059157","","","","","","",""
9.0,0.05931735411286354,0.0013675670829698173,"train",9840.0,"2021-12-03 11:53:55.544303","","","","","","",""
9.0,0.0429377406835556,0.0013710842645712853,"train",9860.0,"2021-12-03 11:53:59.257520","","","","","","",""
9.0,0.06433719396591187,0.0013745964093048219,"train",9880.0,"2021-12-03 11:54:02.838236","","","","","","",""
9.0,0.05430515483021736,0.0013781034637392886,"train",9900.0,"2021-12-03 11:54:06.522275","","","","","","",""
9.0,0.06107039004564285,0.0013816053745209864,"train",9920.0,"2021-12-03 11:54:10.141403","","","","","","",""
9.0,0.06635498255491257,0.0013851020883744697,"train",9940.0,"2021-12-03 11:54:13.746067","","","","","","",""
9.0,0.08919744938611984,0.001388593552103353,"train",9960.0,"2021-12-03 11:54:17.466993","","","","","","",""
9.0,0.049948759377002716,0.0013920797125911233,"train",9980.0,"2021-12-03 11:54:20.941079","","","","","","",""
9.0,0.08128362149000168,0.001395560516801947,"train",10000.0,"2021-12-03 11:54:24.405952","","","","","","",""
9.0,0.11863158643245697,0.0013990359117814774,"train",10020.0,"2021-12-03 11:54:28.062434","","","","","","",""
9.0,0.07180499285459518,0.0014025058446576583,"train",10040.0,"2021-12-03 11:54:31.566331","","","","","","",""
9.0,0.07099304348230362,0.0014059702626415317,"train",10060.0,"2021-12-03 11:54:35.247298","","","","","","",""
9.0,0.0581657774746418,0.0014094291130280377,"train",10080.0,"2021-12-03 11:54:38.867778","","","","","","",""
9.0,0.07381998002529144,0.0014128823431968183,"train",10100.0,"2021-12-03 11:54:42.495588","","","","","","",""
9.0,0.0512324720621109,0.001416329900613017,"train",10120.0,"2021-12-03 11:54:46.240600","","","","","","",""
9.0,0.06497955322265625,0.0014197717328280782,"train",10140.0,"2021-12-03 11:54:49.747140","","","","","","",""
9.0,0.07804589718580246,0.0014232077874805457,"train",10160.0,"2021-12-03 11:54:53.340409","","","","","","",""
9.0,0.04961502552032471,0.0014266380122968589,"train",10180.0,"2021-12-03 11:54:57.034211","","","","","","",""
9.0,0.051288314163684845,0.0014300623550921468,"train",10200.0,"2021-12-03 11:55:00.498978","","","","","","",""
9.0,0.05007633939385414,0.0014334807637710243,"train",10220.0,"2021-12-03 11:55:04.128603","","","","","","",""
9.0,0.0855678841471672,0.0014368931863283831,"train",10240.0,"2021-12-03 11:55:07.613820","","","","","","",""
9.0,0.04834762588143349,0.0014402995708501826,"train",10260.0,"2021-12-03 11:55:11.030596","","","","","","",""
9.0,0.0883391797542572,0.0014436998655142422,"train",10280.0,"2021-12-03 11:55:14.673814","","","","","","",""
9.0,0.0497421957552433,0.0014470940185910258,"train",10300.0,"2021-12-03 11:55:18.155688","","","","","","",""
9.0,0.06462769955396652,0.001450481978444431,"train",10320.0,"2021-12-03 11:55:21.623433","","","","","","",""
9.0,0.055451180785894394,0.0014538636935325763,"train",10340.0,"2021-12-03 11:55:25.234593","","","","","","",""
9.0,0.03916240856051445,0.0014572391124085817,"train",10360.0,"2021-12-03 11:55:28.652694","","","","","","",""
9.0,0.07523075491189957,0.0014606081837213525,"train",10380.0,"2021-12-03 11:55:32.199448","","","","","","",""
9.0,0.05681644752621651,0.0014639708562163639,"train",10400.0,"2021-12-03 11:55:35.986028","","","","","","",""
9.0,0.05362684279680252,0.001467327078736435,"train",10420.0,"2021-12-03 11:55:39.604916","","","","","","",""
9.0,0.055835384875535965,0.0014706768002225108,"train",10440.0,"2021-12-03 11:55:43.380474","","","","","","",""
9.0,0.05605188384652138,0.0014740199697144392,"train",10460.0,"2021-12-03 11:55:46.976479","","","","","","",""
9.0,0.05992927774786949,0.0014773565363517442,"train",10480.0,"2021-12-03 11:55:50.361714","","","","","","",""
9.0,0.05833861976861954,0.0014806864493744007,"train",10500.0,"2021-12-03 11:55:53.893501","","","","","","",""
9.0,0.07478826493024826,0.0014840096581236072,"train",10520.0,"2021-12-03 11:55:57.400081","","","","","","",""
9.0,0.07394140213727951,0.001487326112042556,"train",10540.0,"2021-12-03 11:56:00.947997","","","","","","",""
9.0,0.05696635693311691,0.0014906357606772013,"train",10560.0,"2021-12-03 11:56:04.594297","","","","","","",""
9.0,0.06626615673303604,0.0014939385536770291,"train",10580.0,"2021-12-03 11:56:08.051946","","","","","","",""
9.0,0.07485674321651459,0.0014972344407958218,"train",10600.0,"2021-12-03 11:56:11.646013","","","","","","",""
9.0,0.05275240167975426,0.0015005233718924213,"train",10620.0,"2021-12-03 11:56:15.069475","","","","","","",""
9.0,0.053590673953294754,0.0015038052969314946,"train",10640.0,"2021-12-03 11:56:18.599566","","","","","","",""
9.0,0.09831935167312622,0.0015070801659842939,"train",10660.0,"2021-12-03 11:56:22.387132","","","","","","",""
9.0,0.06970029324293137,0.001510347929229414,"train",10680.0,"2021-12-03 11:56:25.979708","","","","","","",""
9.0,0.05184631422162056,0.0015136085369535537,"train",10700.0,"2021-12-03 11:56:29.446284","","","","","","",""
9.0,0.09061696380376816,0.0015168619395522708,"train",10720.0,"2021-12-03 11:56:33.232196","","","","","","",""
9.0,0.07588335871696472,0.0015201080875307349,"train",10740.0,"2021-12-03 11:56:36.726769","","","","","","",""
9.0,"","","train",10740.0,"2021-12-03 11:58:20.898201",0.6143345703267118,0.6435143923613273,0.9644632510673172,0.6519990530372551,0.5415334228950497,0.5655432221671997,0.3694522187549231
9.0,"","","val",10740.0,"2021-12-03 11:58:48.448994",0.5858170010437203,0.5893292666538941,0.9522397231925548,0.6175855808288623,0.5082453385014793,0.5273857281446672,0.33760451303457156
10.0,0.04049168899655342,0.0015233469315044834,"train",10760.0,"2021-12-03 11:58:54.330767","","","","","","",""
10.0,0.07951488345861435,0.0015265784222001709,"train",10780.0,"2021-12-03 11:58:57.753072","","","","","","",""
10.0,0.05512825399637222,0.0015298025104563185,"train",10800.0,"2021-12-03 11:59:01.405406","","","","","","",""
10.0,0.050268176943063736,0.001533019147224064,"train",10820.0,"2021-12-03 11:59:05.288749","","","","","","",""
10.0,0.05519719794392586,0.0015362282835679054,"train",10840.0,"2021-12-03 11:59:08.878866","","","","","","",""
10.0,0.06773553043603897,0.0015394298706664469,"train",10860.0,"2021-12-03 11:59:12.438246","","","","","","",""
10.0,0.05532465875148773,0.001542623859813141,"train",10880.0,"2021-12-03 11:59:16.239377","","","","","","",""
10.0,0.07029718160629272,0.00154581020241703,"train",10900.0,"2021-12-03 11:59:19.854384","","","","","","",""
10.0,0.07707271724939346,0.0015489888500034858,"train",10920.0,"2021-12-03 11:59:23.375567","","","","","","",""
10.0,0.08502882719039917,0.0015521597542149444,"train",10940.0,"2021-12-03 11:59:27.117416","","","","","","",""
10.0,0.054739102721214294,0.0015553228668116455,"train",10960.0,"2021-12-03 11:59:30.770403","","","","","","",""
10.0,0.07890432327985764,0.0015584781396723642,"train",10980.0,"2021-12-03 11:59:34.400252","","","","","","",""
10.0,0.08696138113737106,0.0015616255247951432,"train",11000.0,"2021-12-03 11:59:38.010603","","","","","","",""
10.0,0.07893621176481247,0.0015647649742980233,"train",11020.0,"2021-12-03 11:59:41.633534","","","","","","",""
10.0,0.06120458245277405,0.0015678964404197727,"train",11040.0,"2021-12-03 11:59:45.310008","","","","","","",""
10.0,0.05430759862065315,0.0015710198755206112,"train",11060.0,"2021-12-03 11:59:48.922320","","","","","","",""
10.0,0.06758192181587219,0.0015741352320829379,"train",11080.0,"2021-12-03 11:59:52.663758","","","","","","",""
10.0,0.09037690609693527,0.0015772424627120527,"train",11100.0,"2021-12-03 11:59:56.232370","","","","","","",""
10.0,0.07431509345769882,0.0015803415201368761,"train",11120.0,"2021-12-03 11:59:59.796813","","","","","","",""
10.0,0.05991999804973602,0.001583432357210671,"train",11140.0,"2021-12-03 12:00:03.556466","","","","","","",""
10.0,0.04683634266257286,0.001586514926911758,"train",11160.0,"2021-12-03 12:00:07.004452","","","","","","",""
10.0,0.06773387640714645,0.0015895891823442313,"train",11180.0,"2021-12-03 12:00:10.522789","","","","","","",""
10.0,0.05073721706867218,0.0015926550767386717,"train",11200.0,"2021-12-03 12:00:14.199370","","","","","","",""
10.0,0.059890612959861755,0.0015957125634528599,"train",11220.0,"2021-12-03 12:00:17.705937","","","","","","",""
10.0,0.06596573442220688,0.0015987615959724836,"train",11240.0,"2021-12-03 12:00:21.226745","","","","","","",""
10.0,0.09809465706348419,0.0016018021279118457,"train",11260.0,"2021-12-03 12:00:24.920825","","","","","","",""
10.0,0.0724693089723587,0.0016048341130145728,"train",11280.0,"2021-12-03 12:00:28.463405","","","","","","",""
10.0,0.05108309164643288,0.0016078575051543145,"train",11300.0,"2021-12-03 12:00:32.141474","","","","","","",""
10.0,0.052904464304447174,0.0016108722583354478,"train",11320.0,"2021-12-03 12:00:35.586436","","","","","","",""
10.0,0.06584655493497849,0.0016138783266937777,"train",11340.0,"2021-12-03 12:00:39.114391","","","","","","",""
10.0,0.07066056877374649,0.0016168756644972322,"train",11360.0,"2021-12-03 12:00:42.895795","","","","","","",""
10.0,0.08189689368009567,0.0016198642261465587,"train",11380.0,"2021-12-03 12:00:46.585560","","","","","","",""
10.0,0.09923598170280457,0.0016228439661760208,"train",11400.0,"2021-12-03 12:00:50.085039","","","","","","",""
10.0,0.044366855174303055,0.001625814839254086,"train",11420.0,"2021-12-03 12:00:53.797866","","","","","","",""
10.0,0.06595776230096817,0.0016287768001841164,"train",11440.0,"2021-12-03 12:00:57.371559","","","","","","",""
10.0,0.05159889906644821,0.001631729803905059,"train",11460.0,"2021-12-03 12:01:01.028485","","","","","","",""
10.0,0.05941183120012283,0.0016346738054921273,"train",11480.0,"2021-12-03 12:01:04.696289","","","","","","",""
10.0,0.041265424340963364,0.001637608760157486,"train",11500.0,"2021-12-03 12:01:08.204019","","","","","","",""
10.0,0.06342296302318573,0.0016405346232509356,"train",11520.0,"2021-12-03 12:01:11.852271","","","","","","",""
10.0,0.054928507655858994,0.0016434513502605861,"train",11540.0,"2021-12-03 12:01:15.411038","","","","","","",""
10.0,0.049206800758838654,0.0016463588968135383,"train",11560.0,"2021-12-03 12:01:19.038234","","","","","","",""
10.0,0.07391997426748276,0.0016492572186765577,"train",11580.0,"2021-12-03 12:01:22.836295","","","","","","",""
10.0,0.0626722052693367,0.001652146271756747,"train",11600.0,"2021-12-03 12:01:26.511719","","","","","","",""
10.0,0.09314679354429245,0.0016550260121022172,"train",11620.0,"2021-12-03 12:01:30.358846","","","","","","",""
10.0,0.07557027786970139,0.0016578963959027562,"train",11640.0,"2021-12-03 12:01:33.891897","","","","","","",""
10.0,0.06830205768346786,0.001660757379490496,"train",11660.0,"2021-12-03 12:01:37.422129","","","","","","",""
10.0,0.07610470801591873,0.0016636089193405761,"train",11680.0,"2021-12-03 12:01:41.142654","","","","","","",""
10.0,0.061710819602012634,0.0016664509720718049,"train",11700.0,"2021-12-03 12:01:44.744516","","","","","","",""
10.0,0.049446046352386475,0.0016692834944473224,"train",11720.0,"2021-12-03 12:01:48.300810","","","","","","",""
10.0,0.06453560292720795,0.0016721064433752554,"train",11740.0,"2021-12-03 12:01:51.975162","","","","","","",""
10.0,0.060182105749845505,0.0016749197759093734,"train",11760.0,"2021-12-03 12:01:55.556065","","","","","","",""
10.0,0.05465466529130936,0.0016777234492497436,"train",11780.0,"2021-12-03 12:01:59.122667","","","","","","",""
10.0,0.055158186703920364,0.0016805174207433808,"train",11800.0,"2021-12-03 12:02:02.848524","","","","","","",""
10.0,"","","train",11814.0,"2021-12-03 12:03:49.532801",0.614218147420505,0.6654655123819515,0.9681208881351548,0.6838377748680344,0.570310322866461,0.5874146557866201,0.39294904845284384
10.0,"","","val",11814.0,"2021-12-03 12:04:16.616965",0.5764815029572075,0.6014654106041247,0.9545065239353215,0.6423118655630801,0.5293882976052793,0.5435476252823952,0.3518953274515081
11.0,0.04966290295124054,0.0016833016478848956,"train",11820.0,"2021-12-03 12:04:19.736429","","","","","","",""
11.0,0.08809097111225128,0.0016860760883171426,"train",11840.0,"2021-12-03 12:04:23.498381","","","","","","",""
11.0,0.07036801427602768,0.001688840699831864,"train",11860.0,"2021-12-03 12:04:26.967444","","","","","","",""
11.0,0.06545170396566391,0.0016915954403703313,"train",11880.0,"2021-12-03 12:04:30.577397","","","","","","",""
11.0,0.055206965655088425,0.0016943402680239862,"train",11900.0,"2021-12-03 12:04:34.329875","","","","","","",""
11.0,0.03981436416506767,0.0016970751410350774,"train",11920.0,"2021-12-03 12:04:38.004048","","","","","","",""
11.0,0.08244527876377106,0.001699800017797296,"train",11940.0,"2021-12-03 12:04:41.709822","","","","","","",""
11.0,0.08973163366317749,0.0017025148568564086,"train",11960.0,"2021-12-03 12:04:45.347658","","","","","","",""
11.0,0.11526370793581009,0.001705219616910888,"train",11980.0,"2021-12-03 12:04:48.804503","","","","","","",""
11.0,0.06480373442173004,0.001707914256812541,"train",12000.0,"2021-12-03 12:04:52.457693","","","","","","",""
11.0,0.05868932977318764,0.0017105987355671352,"train",12020.0,"2021-12-03 12:04:56.020843","","","","","","",""
11.0,0.08290786296129227,0.0017132730123350227,"train",12040.0,"2021-12-03 12:04:59.580326","","","","","","",""
11.0,0.06073058396577835,0.00171593704643176,"train",12060.0,"2021-12-03 12:05:03.233331","","","","","","",""
11.0,0.07076295465230942,0.0017185907973287285,"train",12080.0,"2021-12-03 12:05:06.845908","","","","","","",""
11.0,0.09436407685279846,0.0017212342246537506,"train",12100.0,"2021-12-03 12:05:10.422073","","","","","","",""
11.0,0.050198331475257874,0.0017238672881917032,"train",12120.0,"2021-12-03 12:05:14.196930","","","","","","",""
11.0,0.08104131370782852,0.001726489947885131,"train",12140.0,"2021-12-03 12:05:17.789426","","","","","","",""
11.0,0.038921091705560684,0.0017291021638348543,"train",12160.0,"2021-12-03 12:05:21.602713","","","","","","",""
11.0,0.07933972030878067,0.0017317038963005765,"train",12180.0,"2021-12-03 12:05:25.055857","","","","","","",""
11.0,0.06597550958395004,0.00173429510570149,"train",12200.0,"2021-12-03 12:05:28.516249","","","","","","",""
11.0,0.06704694777727127,0.0017368757526168759,"train",12220.0,"2021-12-03 12:05:32.182575","","","","","","",""
11.0,0.050758905708789825,0.0017394457977867057,"train",12240.0,"2021-12-03 12:05:35.786059","","","","","","",""
11.0,0.05039267614483833,0.0017420052021122378,"train",12260.0,"2021-12-03 12:05:39.312748","","","","","","",""
11.0,0.0648907795548439,0.0017445539266566128,"train",12280.0,"2021-12-03 12:05:42.987105","","","","","","",""
11.0,0.09676876664161682,0.001747091932645445,"train",12300.0,"2021-12-03 12:05:46.530470","","","","","","",""
11.0,0.06343404203653336,0.0017496191814674125,"train",12320.0,"2021-12-03 12:05:50.054004","","","","","","",""
11.0,0.05298953130841255,0.001752135634674846,"train",12340.0,"2021-12-03 12:05:53.723014","","","","","","",""
11.0,0.06659829616546631,0.0017546412539843118,"train",12360.0,"2021-12-03 12:05:57.271221","","","","","","",""
11.0,0.05383915454149246,0.001757136001277194,"train",12380.0,"2021-12-03 12:06:00.960271","","","","","","",""
11.0,0.10750815272331238,0.001759619838600278,"train",12400.0,"2021-12-03 12:06:04.460921","","","","","","",""
11.0,0.06101701036095619,0.0017620927281663229,"train",12420.0,"2021-12-03 12:06:08.006915","","","","","","",""
11.0,0.09491021931171417,0.0017645546323546398,"train",12440.0,"2021-12-03 12:06:11.713240","","","","","","",""
11.0,0.0819353386759758,0.0017670055137116636,"train",12460.0,"2021-12-03 12:06:15.259701","","","","","","",""
11.0,0.07085476070642471,0.0017694453349515209,"train",12480.0,"2021-12-03 12:06:18.767265","","","","","","",""
11.0,0.05274798348546028,0.0017718740589566,"train",12500.0,"2021-12-03 12:06:22.378236","","","","","","",""
11.0,0.06408717483282089,0.0017742916487781134,"train",12520.0,"2021-12-03 12:06:25.927586","","","","","","",""
11.0,0.07732195407152176,0.0017766980676366608,"train",12540.0,"2021-12-03 12:06:29.671171","","","","","","",""
11.0,0.06753978878259659,0.001779093278922789,"train",12560.0,"2021-12-03 12:06:33.229669","","","","","","",""
11.0,0.060815371572971344,0.001781477246197548,"train",12580.0,"2021-12-03 12:06:36.721410","","","","","","",""
11.0,0.08431173861026764,0.0017838499331930462,"train",12600.0,"2021-12-03 12:06:40.402593","","","","","","",""
11.0,0.05517318844795227,0.001786211303813001,"train",12620.0,"2021-12-03 12:06:43.960554","","","","","","",""
11.0,0.06430016458034515,0.0017885613221332894,"train",12640.0,"2021-12-03 12:06:47.515060","","","","","","",""
11.0,0.09052055329084396,0.0017908999524024931,"train",12660.0,"2021-12-03 12:06:51.123562","","","","","","",""
11.0,0.07532975822687149,0.0017932271590424438,"train",12680.0,"2021-12-03 12:06:54.758215","","","","","","",""
11.0,0.04977765679359436,0.0017955429066487635,"train",12700.0,"2021-12-03 12:06:58.508855","","","","","","",""
11.0,0.10114303231239319,0.0017978471599914025,"train",12720.0,"2021-12-03 12:07:02.116020","","","","","","",""
11.0,0.07668399810791016,0.0018001398840151778,"train",12740.0,"2021-12-03 12:07:05.631708","","","","","","",""
11.0,0.0558689720928669,0.0018024210438403031,"train",12760.0,"2021-12-03 12:07:09.294036","","","","","","",""
11.0,0.05694827437400818,0.0018046906047629228,"train",12780.0,"2021-12-03 12:07:12.860480","","","","","","",""
11.0,0.08531838655471802,0.0018069485322556372,"train",12800.0,"2021-12-03 12:07:16.336697","","","","","","",""
11.0,0.0583631731569767,0.001809194791968029,"train",12820.0,"2021-12-03 12:07:20.019584","","","","","","",""
11.0,0.09329550713300705,0.0018114293497271863,"train",12840.0,"2021-12-03 12:07:23.516049","","","","","","",""
11.0,0.09318183362483978,0.0018136521715382218,"train",12860.0,"2021-12-03 12:07:27.079603","","","","","","",""
11.0,0.06297995150089264,0.0018158632235847892,"train",12880.0,"2021-12-03 12:07:30.818715","","","","","","",""
11.0,"","","train",12888.0,"2021-12-03 12:09:16.360568",0.6297023939460089,0.6774206058305415,0.9703934780593001,0.6815670431409183,0.5737619996712966,0.5945494146370991,0.3943709278972281
11.0,"","","val",12888.0,"2021-12-03 12:09:43.883713",0.5953844369708918,0.6082618942954413,0.9563672635668635,0.6383313427349091,0.5247519706701814,0.5443767970628957,0.34874326678231515
12.0,0.05405405908823013,0.0018180624722295999,"train",12900.0,"2021-12-03 12:09:48.119170","","","","","","",""
12.0,0.09630755335092545,0.001820249884014933,"train",12920.0,"2021-12-03 12:09:52.060828","","","","","","",""
12.0,0.08327578008174896,0.001822425425663144,"train",12940.0,"2021-12-03 12:09:55.623110","","","","","","",""
12.0,0.05223880708217621,0.0018245890640771725,"train",12960.0,"2021-12-03 12:09:59.143462","","","","","","",""
12.0,0.0501529686152935,0.0018267407663410452,"train",12980.0,"2021-12-03 12:10:02.841441","","","","","","",""
12.0,0.05765359103679657,0.0018288804997203755,"train",13000.0,"2021-12-03 12:10:06.428960","","","","","","",""
12.0,0.08069522678852081,0.0018310082316628634,"train",13020.0,"2021-12-03 12:10:10.069737","","","","","","",""
12.0,0.05167417600750923,0.0018331239297987893,"train",13040.0,"2021-12-03 12:10:13.797836","","","","","","",""
12.0,0.07749289274215698,0.0018352275619415066,"train",13060.0,"2021-12-03 12:10:17.302279","","","","","","",""
12.0,0.05605470389127731,0.0018373190960879326,"train",13080.0,"2021-12-03 12:10:21.067521","","","","","","",""
12.0,0.06934943050146103,0.0018393985004190336,"train",13100.0,"2021-12-03 12:10:24.642946","","","","","","",""
12.0,0.051517728716135025,0.00184146574330031,"train",13120.0,"2021-12-03 12:10:28.269840","","","","","","",""
12.0,0.06102925166487694,0.001843520793282278,"train",13140.0,"2021-12-03 12:10:32.042736","","","","","","",""
12.0,0.04172232747077942,0.0018455636191009464,"train",13160.0,"2021-12-03 12:10:35.655535","","","","","","",""
12.0,0.06367312371730804,0.001847594189678294,"train",13180.0,"2021-12-03 12:10:39.134794","","","","","","",""
12.0,0.07943973690271378,0.0018496124741227415,"train",13200.0,"2021-12-03 12:10:42.754454","","","","","","",""
12.0,0.05652111396193504,0.001851618441729622,"train",13220.0,"2021-12-03 12:10:46.312024","","","","","","",""
12.0,0.07490982115268707,0.0018536120619816467,"train",13240.0,"2021-12-03 12:10:50.040926","","","","","","",""
12.0,0.05858364701271057,0.0018555933045493712,"train",13260.0,"2021-12-03 12:10:53.512197","","","","","","",""
12.0,0.08078473061323166,0.0018575621392916554,"train",13280.0,"2021-12-03 12:10:57.096216","","","","","","",""
12.0,0.07121499627828598,0.0018595185362561225,"train",13300.0,"2021-12-03 12:11:00.931808","","","","","","",""
12.0,0.08577416837215424,0.0018614624656796155,"train",13320.0,"2021-12-03 12:11:04.500899","","","","","","",""
12.0,0.0590820387005806,0.0018633938979886484,"train",13340.0,"2021-12-03 12:11:08.156008","","","","","","",""
12.0,0.061087314039468765,0.0018653128037998568,"train",13360.0,"2021-12-03 12:11:11.833485","","","","","","",""
12.0,0.08578502386808395,0.0018672191539204459,"train",13380.0,"2021-12-03 12:11:15.330870","","","","","","",""
12.0,0.11868128925561905,0.0018691129193486335,"train",13400.0,"2021-12-03 12:11:18.998803","","","","","","",""
12.0,0.07453121244907379,0.0018709940712740908,"train",13420.0,"2021-12-03 12:11:22.613820","","","","","","",""
12.0,0.056591108441352844,0.0018728625810783823,"train",13440.0,"2021-12-03 12:11:26.237691","","","","","","",""
12.0,0.08989431709051132,0.0018747184203353996,"train",13460.0,"2021-12-03 12:11:29.927306","","","","","","",""
12.0,0.054970450699329376,0.0018765615608117947,"train",13480.0,"2021-12-03 12:11:33.428859","","","","","","",""
12.0,0.060082029551267624,0.0018783919744674096,"train",13500.0,"2021-12-03 12:11:37.030853","","","","","","",""
12.0,0.07015379518270493,0.0018802096334557027,"train",13520.0,"2021-12-03 12:11:40.825709","","","","","","",""
12.0,0.06421330571174622,0.0018820145101241712,"train",13540.0,"2021-12-03 12:11:44.453930","","","","","","",""
12.0,0.065672367811203,0.0018838065770147745,"train",13560.0,"2021-12-03 12:11:48.098020","","","","","","",""
12.0,0.06032978743314743,0.0018855858068643496,"train",13580.0,"2021-12-03 12:11:51.849243","","","","","","",""
12.0,0.06901026517152786,0.001887352172605026,"train",13600.0,"2021-12-03 12:11:55.320960","","","","","","",""
12.0,0.07016497850418091,0.0018891056473646398,"train",13620.0,"2021-12-03 12:11:58.925414","","","","","","",""
12.0,0.051924094557762146,0.0018908462044671395,"train",13640.0,"2021-12-03 12:12:02.410069","","","","","","",""
12.0,0.08692415058612823,0.001892573817432993,"train",13660.0,"2021-12-03 12:12:05.936845","","","","","","",""
12.0,0.05190156400203705,0.0018942884599795914,"train",13680.0,"2021-12-03 12:12:09.611294","","","","","","",""
12.0,0.05392107740044594,0.001895990106021648,"train",13700.0,"2021-12-03 12:12:13.055934","","","","","","",""
12.0,0.060165371745824814,0.0018976787296715943,"train",13720.0,"2021-12-03 12:12:16.489881","","","","","","",""
12.0,0.07400322705507278,0.0018993543052399757,"train",13740.0,"2021-12-03 12:12:20.155095","","","","","","",""
12.0,0.06505529582500458,0.0019010168072358413,"train",13760.0,"2021-12-03 12:12:23.771703","","","","","","",""
12.0,0.07154084742069244,0.0019026662103671305,"train",13780.0,"2021-12-03 12:12:27.566670","","","","","","",""
12.0,0.06139151006937027,0.0019043024895410605,"train",13800.0,"2021-12-03 12:12:31.050777","","","","","","",""
12.0,0.07384244352579117,0.001905925619864506,"train",13820.0,"2021-12-03 12:12:34.499271","","","","","","",""
12.0,0.08561259508132935,0.001907535576644378,"train",13840.0,"2021-12-03 12:12:38.139108","","","","","","",""
12.0,0.057367078959941864,0.0019091323353880008,"train",13860.0,"2021-12-03 12:12:41.636432","","","","","","",""
12.0,0.041051268577575684,0.0019107158718034828,"train",13880.0,"2021-12-03 12:12:45.163723","","","","","","",""
12.0,0.07368775457143784,0.001912286161800088,"train",13900.0,"2021-12-03 12:12:48.911552","","","","","","",""
12.0,0.04749257117509842,0.0019138431814886008,"train",13920.0,"2021-12-03 12:12:52.514414","","","","","","",""
12.0,0.04115952178835869,0.0019153869071816896,"train",13940.0,"2021-12-03 12:12:56.287362","","","","","","",""
12.0,0.0532536543905735,0.0019169173153942693,"train",13960.0,"2021-12-03 12:12:59.793017","","","","","","",""
12.0,"","","train",13962.0,"2021-12-03 12:14:45.103931",0.6383613475951393,0.6928731852243877,0.9727001953541945,0.6918962112462412,0.5834005451874925,0.605166914275226,0.4020808566678769
12.0,"","","val",13962.0,"2021-12-03 12:15:12.688573",0.6012988519076887,0.616448765420411,0.9576101279228726,0.6439124897828533,0.5292274980008626,0.5487393318456998,0.35053413023754804
13.0,0.08377818018198013,0.0019184343828438557,"train",13980.0,"2021-12-03 12:15:18.011314","","","","","","",""
13.0,0.07494784891605377,0.0019199380864509208,"train",14000.0,"2021-12-03 12:15:21.831213","","","","","","",""
13.0,0.06742610782384872,0.0019214284033392457,"train",14020.0,"2021-12-03 12:15:25.295516","","","","","","",""
13.0,0.10012882202863693,0.0019229053108362649,"train",14040.0,"2021-12-03 12:15:28.774286","","","","","","",""
13.0,0.06353200972080231,0.0019243687864734145,"train",14060.0,"2021-12-03 12:15:32.442509","","","","","","",""
13.0,0.053779035806655884,0.0019258188079864732,"train",14080.0,"2021-12-03 12:15:35.953452","","","","","","",""
13.0,0.08694718778133392,0.0019272553533158999,"train",14100.0,"2021-12-03 12:15:39.527699","","","","","","",""
13.0,0.06276898831129074,0.0019286784006071697,"train",14120.0,"2021-12-03 12:15:43.188454","","","","","","",""
13.0,0.041281819343566895,0.0019300879282111083,"train",14140.0,"2021-12-03 12:15:46.621795","","","","","","",""
13.0,0.040450792759656906,0.0019314839146842185,"train",14160.0,"2021-12-03 12:15:50.232840","","","","","","",""
13.0,0.03682584688067436,0.0019328663387890076,"train",14180.0,"2021-12-03 12:15:53.666592","","","","","","",""
13.0,0.036846209317445755,0.0019342351794943119,"train",14200.0,"2021-12-03 12:15:57.157852","","","","","","",""
13.0,0.07937366515398026,0.0019355904159756138,"train",14220.0,"2021-12-03 12:16:01.005995","","","","","","",""
13.0,0.0874405950307846,0.0019369320276153613,"train",14240.0,"2021-12-03 12:16:04.670773","","","","","","",""
13.0,0.05323232710361481,0.00193825999400328,"train",14260.0,"2021-12-03 12:16:08.316352","","","","","","",""
13.0,0.06473971158266068,0.0019395742949366843,"train",14280.0,"2021-12-03 12:16:12.032328","","","","","","",""
13.0,0.05467081442475319,0.0019408749104207845,"train",14300.0,"2021-12-03 12:16:15.536767","","","","","","",""
13.0,0.07433531433343887,0.0019421618206689913,"train",14320.0,"2021-12-03 12:16:19.232298","","","","","","",""
13.0,0.04625926911830902,0.0019434350061032163,"train",14340.0,"2021-12-03 12:16:22.772525","","","","","","",""
13.0,0.06660124659538269,0.0019446944473541703,"train",14360.0,"2021-12-03 12:16:26.290541","","","","","","",""
13.0,0.08621549606323242,0.0019459401252616573,"train",14380.0,"2021-12-03 12:16:29.956011","","","","","","",""
13.0,0.053864557296037674,0.001947172020874868,"train",14400.0,"2021-12-03 12:16:33.452728","","","","","","",""
13.0,0.07314976304769516,0.0019483901154526647,"train",14420.0,"2021-12-03 12:16:36.942222","","","","","","",""
13.0,0.05816268175840378,0.0019495943904638694,"train",14440.0,"2021-12-03 12:16:40.504523","","","","","","",""
13.0,0.05039258301258087,0.0019507848275875444,"train",14460.0,"2021-12-03 12:16:43.947753","","","","","","",""
13.0,0.04668897017836571,0.0019519614087132712,"train",14480.0,"2021-12-03 12:16:47.581670","","","","","","",""
13.0,0.06625977903604507,0.0019531241159414263,"train",14500.0,"2021-12-03 12:16:51.006626","","","","","","",""
13.0,0.053438950330019,0.001954272931583453,"train",14520.0,"2021-12-03 12:16:54.417504","","","","","","",""
13.0,0.06562376022338867,0.0019554078381621306,"train",14540.0,"2021-12-03 12:16:58.001746","","","","","","",""
13.0,0.07987319678068161,0.0019565288184118417,"train",14560.0,"2021-12-03 12:17:01.480612","","","","","","",""
13.0,0.041826434433460236,0.0019576358552788314,"train",14580.0,"2021-12-03 12:17:05.069309","","","","","","",""
13.0,0.06413210928440094,0.0019587289319214713,"train",14600.0,"2021-12-03 12:17:08.840602","","","","","","",""
13.0,0.059375789016485214,0.0019598080317105113,"train",14620.0,"2021-12-03 12:17:12.373813","","","","","","",""
13.0,0.046722739934921265,0.001960873138229337,"train",14640.0,"2021-12-03 12:17:15.994452","","","","","","",""
13.0,0.07608248293399811,0.0019619242352742153,"train",14660.0,"2021-12-03 12:17:19.733859","","","","","","",""
13.0,0.06835293769836426,0.001962961306854543,"train",14680.0,"2021-12-03 12:17:23.236070","","","","","","",""
13.0,0.07155445963144302,0.0019639843371930905,"train",14700.0,"2021-12-03 12:17:27.032393","","","","","","",""
13.0,0.055606093257665634,0.001964993310726241,"train",14720.0,"2021-12-03 12:17:30.653462","","","","","","",""
13.0,0.05678815022110939,0.0019659882121042262,"train",14740.0,"2021-12-03 12:17:34.162505","","","","","","",""
13.0,0.048733945935964584,0.001966969026191363,"train",14760.0,"2021-12-03 12:17:37.897486","","","","","","",""
13.0,0.045697808265686035,0.0019679357380662805,"train",14780.0,"2021-12-03 12:17:41.445961","","","","","","",""
13.0,0.04564928263425827,0.001968888333022148,"train",14800.0,"2021-12-03 12:17:44.973788","","","","","","",""
13.0,0.0480758398771286,0.0019698267965669,"train",14820.0,"2021-12-03 12:17:48.528099","","","","","","",""
13.0,0.052310094237327576,0.0019707511144234557,"train",14840.0,"2021-12-03 12:17:51.955468","","","","","","",""
13.0,0.051801517605781555,0.001971661272529935,"train",14860.0,"2021-12-03 12:17:55.591406","","","","","","",""
13.0,0.034343283623456955,0.001972557257039875,"train",14880.0,"2021-12-03 12:17:59.061361","","","","","","",""
13.0,0.0839664489030838,0.0019734390543224385,"train",14900.0,"2021-12-03 12:18:02.511607","","","","","","",""
13.0,0.05929416045546532,0.001974306650962622,"train",14920.0,"2021-12-03 12:18:06.103250","","","","","","",""
13.0,0.08022574335336685,0.0019751600337614608,"train",14940.0,"2021-12-03 12:18:09.563663","","","","","","",""
13.0,0.05684070289134979,0.0019759991897362284,"train",14960.0,"2021-12-03 12:18:13.031719","","","","","","",""
13.0,0.05861273780465126,0.0019768241061206343,"train",14980.0,"2021-12-03 12:18:16.608190","","","","","","",""
13.0,0.04657488688826561,0.0019776347703650186,"train",15000.0,"2021-12-03 12:18:19.970538","","","","","","",""
13.0,0.0811276063323021,0.001978431170136543,"train",15020.0,"2021-12-03 12:18:23.652552","","","","","","",""
13.0,"","","train",15036.0,"2021-12-03 12:20:11.285253",0.6485046932984064,0.7133576303839159,0.9758397083954626,0.6981892486866912,0.5934866415248701,0.6194644083055025,0.41714715700935057
13.0,"","","val",15036.0,"2021-12-03 12:20:38.824035",0.6090687695697553,0.629167104825759,0.9598128088049371,0.6523864419013337,0.5453586450015802,0.568704338001898,0.36616328972143725
14.0,0.11484526842832565,0.0019792132933193784,"train",15040.0,"2021-12-03 12:20:41.547513","","","","","","",""
14.0,0.045726753771305084,0.001979981128014888,"train",15060.0,"2021-12-03 12:20:45.179991","","","","","","",""
14.0,0.07207094132900238,0.001980734662541811,"train",15080.0,"2021-12-03 12:20:49.057394","","","","","","",""
14.0,0.05058176442980766,0.0019814738854364374,"train",15100.0,"2021-12-03 12:20:52.479445","","","","","","",""
14.0,0.04802338033914566,0.0019821987854527832,"train",15120.0,"2021-12-03 12:20:55.933249","","","","","","",""
14.0,0.04408406838774681,0.0019829093515627634,"train",15140.0,"2021-12-03 12:20:59.567418","","","","","","",""
14.0,0.044976722449064255,0.001983605572956358,"train",15160.0,"2021-12-03 12:21:02.955530","","","","","","",""
14.0,0.04973414167761803,0.001984287439041775,"train",15180.0,"2021-12-03 12:21:06.354090","","","","","","",""
14.0,0.07699983566999435,0.001984954939445616,"train",15200.0,"2021-12-03 12:21:10.014052","","","","","","",""
14.0,0.056718215346336365,0.0019856080640130295,"train",15220.0,"2021-12-03 12:21:13.558705","","","","","","",""
14.0,0.0721353068947792,0.0019862468028078676,"train",15240.0,"2021-12-03 12:21:17.389651","","","","","","",""
14.0,0.05984536185860634,0.001986871146112837,"train",15260.0,"2021-12-03 12:21:20.975236","","","","","","",""
14.0,0.06984018534421921,0.0019874810844296466,"train",15280.0,"2021-12-03 12:21:24.488252","","","","","","",""
14.0,0.0533749982714653,0.0019880766084791517,"train",15300.0,"2021-12-03 12:21:28.219179","","","","","","",""
14.0,0.07441944628953934,0.0019886577092014953,"train",15320.0,"2021-12-03 12:21:31.743341","","","","","","",""
14.0,0.07517765462398529,0.001989224377756247,"train",15340.0,"2021-12-03 12:21:35.262483","","","","","","",""
14.0,0.06423540413379669,0.0019897766055225353,"train",15360.0,"2021-12-03 12:21:39.033639","","","","","","",""
14.0,0.09293881058692932,0.0019903143840991813,"train",15380.0,"2021-12-03 12:21:42.668976","","","","","","",""
14.0,0.049787845462560654,0.0019908377053048246,"train",15400.0,"2021-12-03 12:21:46.475800","","","","","","",""
14.0,0.1117527037858963,0.001991346561178048,"train",15420.0,"2021-12-03 12:21:50.048165","","","","","","",""
14.0,0.11233130097389221,0.0019918409439775003,"train",15440.0,"2021-12-03 12:21:53.476287","","","","","","",""
14.0,0.07105062156915665,0.0019923208461820117,"train",15460.0,"2021-12-03 12:21:57.240934","","","","","","",""
14.0,0.05375441536307335,0.001992786260490709,"train",15480.0,"2021-12-03 12:22:00.908010","","","","","","",""
14.0,0.04920026287436485,0.0019932371798231287,"train",15500.0,"2021-12-03 12:22:04.445127","","","","","","",""
14.0,0.08308976143598557,0.0019936735973193212,"train",15520.0,"2021-12-03 12:22:08.090111","","","","","","",""
14.0,0.07720395177602768,0.001994095506339958,"train",15540.0,"2021-12-03 12:22:11.615168","","","","","","",""
14.0,0.062413617968559265,0.001994502900466431,"train",15560.0,"2021-12-03 12:22:15.195175","","","","","","",""
14.0,0.06667864322662354,0.0019948957735009517,"train",15580.0,"2021-12-03 12:22:18.906207","","","","","","",""
14.0,0.06018569692969322,0.0019952741194666436,"train",15600.0,"2021-12-03 12:22:22.439427","","","","","","",""
14.0,0.061829276382923126,0.0019956379326076354,"train",15620.0,"2021-12-03 12:22:26.062301","","","","","","",""
14.0,0.06663501262664795,0.001995987207389146,"train",15640.0,"2021-12-03 12:22:29.569982","","","","","","",""
14.0,0.05492916703224182,0.0019963219384975706,"train",15660.0,"2021-12-03 12:22:33.052120","","","","","","",""
14.0,0.09800631552934647,0.001996642120840561,"train",15680.0,"2021-12-03 12:22:36.805846","","","","","","",""
14.0,0.07211475819349289,0.001996947749547103,"train",15700.0,"2021-12-03 12:22:40.367237","","","","","","",""
14.0,0.05443855747580528,0.0019972388199675905,"train",15720.0,"2021-12-03 12:22:43.954710","","","","","","",""
14.0,0.06462326645851135,0.001997515327673896,"train",15740.0,"2021-12-03 12:22:47.674030","","","","","","",""
14.0,0.10263659805059433,0.0019977772684594388,"train",15760.0,"2021-12-03 12:22:51.153563","","","","","","",""
14.0,0.05106888711452484,0.0019980246383392475,"train",15780.0,"2021-12-03 12:22:54.799281","","","","","","",""
14.0,0.04521152749657631,0.0019982574335500225,"train",15800.0,"2021-12-03 12:22:58.395471","","","","","","",""
14.0,0.10212653875350952,0.001998475650550192,"train",15820.0,"2021-12-03 12:23:01.948816","","","","","","",""
14.0,0.055949337780475616,0.0019986792860199657,"train",15840.0,"2021-12-03 12:23:05.633422","","","","","","",""
14.0,0.05178644135594368,0.001998868336861386,"train",15860.0,"2021-12-03 12:23:09.168170","","","","","","",""
14.0,0.06287743151187897,0.001999042800198376,"train",15880.0,"2021-12-03 12:23:12.730006","","","","","","",""
14.0,0.09942498803138733,0.00199920267337678,"train",15900.0,"2021-12-03 12:23:16.494996","","","","","","",""
14.0,0.05806407704949379,0.0019993479539644077,"train",15920.0,"2021-12-03 12:23:20.119137","","","","","","",""
14.0,0.09451863914728165,0.0019994786397510697,"train",15940.0,"2021-12-03 12:23:23.872346","","","","","","",""
14.0,0.07022460550069809,0.0019995947287486096,"train",15960.0,"2021-12-03 12:23:27.446877","","","","","","",""
14.0,0.05933687463402748,0.0019996962191909367,"train",15980.0,"2021-12-03 12:23:30.993627","","","","","","",""
14.0,0.05396748706698418,0.0019997831095340513,"train",16000.0,"2021-12-03 12:23:34.795482","","","","","","",""
14.0,0.0756763368844986,0.001999855398456069,"train",16020.0,"2021-12-03 12:23:38.400781","","","","","","",""
14.0,0.06391184031963348,0.00199991308485724,"train",16040.0,"2021-12-03 12:23:42.037248","","","","","","",""
14.0,0.07386249303817749,0.001999956167859967,"train",16060.0,"2021-12-03 12:23:45.756424","","","","","","",""
14.0,0.047178518027067184,0.0019999846468088172,"train",16080.0,"2021-12-03 12:23:49.292944","","","","","","",""
14.0,0.07158465683460236,0.0019999985212705335,"train",16100.0,"2021-12-03 12:23:52.733811","","","","","","",""
14.0,"","","train",16110.0,"2021-12-03 12:25:38.991984",0.661893327512188,0.7286213954196732,0.977520702935813,0.7162808954793315,0.6233868449619062,0.6541538639428351,0.4369445007752476
14.0,"","","val",16110.0,"2021-12-03 12:26:06.567667",0.6113881479763423,0.6330122412595708,0.9608599015368149,0.6567647448196045,0.5553588524705805,0.5803236112473342,0.3719117612213827
15.0,0.04673337936401367,0.0019999995774202316,"train",16120.0,"2021-12-03 12:26:10.400126","","","","","","",""
15.0,0.055194370448589325,0.0019999966438102564,"train",16140.0,"2021-12-03 12:26:13.889847","","","","","","",""
15.0,0.08748235553503036,0.0019999909162942875,"train",16160.0,"2021-12-03 12:26:17.732837","","","","","","",""
15.0,0.061494722962379456,0.001999982394888327,"train",16180.0,"2021-12-03 12:26:21.353923","","","","","","",""
15.0,0.05132876709103584,0.0019999710796161823,"train",16200.0,"2021-12-03 12:26:24.934827","","","","","","",""
15.0,0.08040010929107666,0.0019999569705094686,"train",16220.0,"2021-12-03 12:26:28.655686","","","","","","",""
15.0,0.062003642320632935,0.001999940067607605,"train",16240.0,"2021-12-03 12:26:32.207308","","","","","","",""
15.0,0.0878484770655632,0.001999920370957817,"train",16260.0,"2021-12-03 12:26:35.997022","","","","","","",""
15.0,0.04762382432818413,0.0019998978806151355,"train",16280.0,"2021-12-03 12:26:39.619700","","","","","","",""
15.0,0.062206339091062546,0.0019998725966423976,"train",16300.0,"2021-12-03 12:26:43.274504","","","","","","",""
15.0,0.046939417719841,0.001999844519110244,"train",16320.0,"2021-12-03 12:26:47.109343","","","","","","",""
15.0,0.0444023460149765,0.001999813648097122,"train",16340.0,"2021-12-03 12:26:50.779523","","","","","","",""
15.0,0.05163496360182762,0.001999779983689282,"train",16360.0,"2021-12-03 12:26:54.388303","","","","","","",""
15.0,0.08087195456027985,0.0019997435259807806,"train",16380.0,"2021-12-03 12:26:58.123258","","","","","","",""
15.0,0.04623633250594139,0.001999704275073478,"train",16400.0,"2021-12-03 12:27:01.591210","","","","","","",""
15.0,0.057032760232686996,0.0019996622310770383,"train",16420.0,"2021-12-03 12:27:05.049661","","","","","","",""
15.0,0.06948170810937881,0.0019996173941089286,"train",16440.0,"2021-12-03 12:27:08.737958","","","","","","",""
15.0,0.05419187620282173,0.0019995697642944212,"train",16460.0,"2021-12-03 12:27:12.250141","","","","","","",""
15.0,0.0890711322426796,0.0019995193417665894,"train",16480.0,"2021-12-03 12:27:15.967236","","","","","","",""
15.0,0.07721708714962006,0.0019994661266663108,"train",16500.0,"2021-12-03 12:27:19.426336","","","","","","",""
15.0,0.07974407821893692,0.001999410119142264,"train",16520.0,"2021-12-03 12:27:22.886909","","","","","","",""
15.0,0.09147457033395767,0.0019993513193509297,"train",16540.0,"2021-12-03 12:27:26.528062","","","","","","",""
15.0,0.03988739475607872,0.0019992897274565906,"train",16560.0,"2021-12-03 12:27:30.043688","","","","","","",""
15.0,0.09083123505115509,0.0019992253436313303,"train",16580.0,"2021-12-03 12:27:33.503790","","","","","","",""
15.0,0.04436257481575012,0.0019991581680550313,"train",16600.0,"2021-12-03 12:27:37.126691","","","","","","",""
15.0,0.06046561151742935,0.0019990882009153785,"train",16620.0,"2021-12-03 12:27:40.589276","","","","","","",""
15.0,0.07007104158401489,0.001999015442407854,"train",16640.0,"2021-12-03 12:27:44.273709","","","","","","",""
15.0,0.05256779491901398,0.0019989398927357403,"train",16660.0,"2021-12-03 12:27:47.845571","","","","","","",""
15.0,0.09137991815805435,0.0019988615521101174,"train",16680.0,"2021-12-03 12:27:51.324570","","","","","","",""
15.0,0.0910021960735321,0.0019987804207498637,"train",16700.0,"2021-12-03 12:27:54.924024","","","","","","",""
15.0,0.05713602527976036,0.0019986964988816533,"train",16720.0,"2021-12-03 12:27:58.348023","","","","","","",""
15.0,0.07135012000799179,0.0019986097867399585,"train",16740.0,"2021-12-03 12:28:01.894548","","","","","","",""
15.0,0.043275509029626846,0.0019985202845670463,"train",16760.0,"2021-12-03 12:28:05.610313","","","","","","",""
15.0,0.03873981162905693,0.0019984279926129798,"train",16780.0,"2021-12-03 12:28:09.075894","","","","","","",""
15.0,0.08216500282287598,0.001998332911135615,"train",16800.0,"2021-12-03 12:28:12.741698","","","","","","",""
15.0,0.057643044739961624,0.0019982350404006036,"train",16820.0,"2021-12-03 12:28:16.212316","","","","","","",""
15.0,0.06197990104556084,0.0019981343806813883,"train",16840.0,"2021-12-03 12:28:19.718226","","","","","","",""
15.0,0.06048441305756569,0.001998030932259205,"train",16860.0,"2021-12-03 12:28:23.562266","","","","","","",""
15.0,0.05371874198317528,0.0019979246954230823,"train",16880.0,"2021-12-03 12:28:27.180669","","","","","","",""
15.0,0.038054537028074265,0.0019978156704698363,"train",16900.0,"2021-12-03 12:28:30.806887","","","","","","",""
15.0,0.03615093231201172,0.001997703857704076,"train",16920.0,"2021-12-03 12:28:34.588703","","","","","","",""
15.0,0.05373270809650421,0.0019975892574381976,"train",16940.0,"2021-12-03 12:28:38.107509","","","","","","",""
15.0,0.07509978115558624,0.001997471869992386,"train",16960.0,"2021-12-03 12:28:41.706955","","","","","","",""
15.0,0.05273834615945816,0.0019973516956946127,"train",16980.0,"2021-12-03 12:28:45.333329","","","","","","",""
15.0,0.06782914698123932,0.0019972287348806366,"train",17000.0,"2021-12-03 12:28:48.839088","","","","","","",""
15.0,0.06714930385351181,0.0019971029878940003,"train",17020.0,"2021-12-03 12:28:52.594829","","","","","","",""
15.0,0.05614086613059044,0.0019969744550860317,"train",17040.0,"2021-12-03 12:28:56.154423","","","","","","",""
15.0,0.043269965797662735,0.0019968431368158433,"train",17060.0,"2021-12-03 12:28:59.683825","","","","","","",""
15.0,0.037496037781238556,0.001996709033450327,"train",17080.0,"2021-12-03 12:29:03.347660","","","","","","",""
15.0,0.04953214153647423,0.0019965721453641585,"train",17100.0,"2021-12-03 12:29:06.910836","","","","","","",""
15.0,0.05331951007246971,0.0019964324729397935,"train",17120.0,"2021-12-03 12:29:10.534168","","","","","","",""
15.0,0.05028239265084267,0.0019962900165674657,"train",17140.0,"2021-12-03 12:29:14.301151","","","","","","",""
15.0,0.057108763605356216,0.0019961447766451887,"train",17160.0,"2021-12-03 12:29:17.922592","","","","","","",""
15.0,0.04794197157025337,0.001995996753578751,"train",17180.0,"2021-12-03 12:29:21.736335","","","","","","",""
15.0,"","","train",17184.0,"2021-12-03 12:31:08.356376",0.6475005457323728,0.7368825248585558,0.9787785427199274,0.7062042463447934,0.61413945389144,0.641323850327326,0.43332309777177314
15.0,"","","val",17184.0,"2021-12-03 12:31:35.869721",0.5909196335382118,0.6244338201473447,0.9597146189154906,0.6392078870774526,0.544415791264634,0.566973964802768,0.35947142327911136
16.0,0.0792442336678505,0.001995845947781719,"train",17200.0,"2021-12-03 12:31:40.854452","","","","","","",""
16.0,0.05690102279186249,0.001995692359675433,"train",17220.0,"2021-12-03 12:31:44.492761","","","","","","",""
16.0,0.06363832950592041,0.0019955359896890066,"train",17240.0,"2021-12-03 12:31:48.349984","","","","","","",""
16.0,0.06429161876440048,0.0019953768382593258,"train",17260.0,"2021-12-03 12:31:51.878437","","","","","","",""
16.0,0.06945142894983292,0.0019952149058310486,"train",17280.0,"2021-12-03 12:31:55.523649","","","","","","",""
16.0,0.08001911640167236,0.001995050192856602,"train",17300.0,"2021-12-03 12:31:59.347706","","","","","","",""
16.0,0.06954876333475113,0.001994882699796182,"train",17320.0,"2021-12-03 12:32:02.991429","","","","","","",""
16.0,0.06363693624734879,0.001994712427117752,"train",17340.0,"2021-12-03 12:32:06.676670","","","","","","",""
16.0,0.07644136995077133,0.0019945393752970413,"train",17360.0,"2021-12-03 12:32:10.198693","","","","","","",""
16.0,0.04947459697723389,0.001994363544817544,"train",17380.0,"2021-12-03 12:32:13.723195","","","","","","",""
16.0,0.06859611719846725,0.001994184936170517,"train",17400.0,"2021-12-03 12:32:17.381444","","","","","","",""
16.0,0.05964058265089989,0.0019940035498549804,"train",17420.0,"2021-12-03 12:32:20.903156","","","","","","",""
16.0,0.06790454685688019,0.0019938193863777145,"train",17440.0,"2021-12-03 12:32:24.394929","","","","","","",""
16.0,0.04997717961668968,0.001993632446253258,"train",17460.0,"2021-12-03 12:32:28.021958","","","","","","",""
16.0,0.041331302374601364,0.0019934427300039074,"train",17480.0,"2021-12-03 12:32:31.529711","","","","","","",""
16.0,0.04569046571850777,0.001993250238159717,"train",17500.0,"2021-12-03 12:32:35.038021","","","","","","",""
16.0,0.04868828505277634,0.0019930549712584944,"train",17520.0,"2021-12-03 12:32:38.817817","","","","","","",""
16.0,0.04351624473929405,0.001992856929845801,"train",17540.0,"2021-12-03 12:32:42.450840","","","","","","",""
16.0,0.05095522850751877,0.0019926561144749497,"train",17560.0,"2021-12-03 12:32:46.244674","","","","","","",""
16.0,0.07474405318498611,0.001992452525707004,"train",17580.0,"2021-12-03 12:32:49.877431","","","","","","",""
16.0,0.041286662220954895,0.0019922461641107767,"train",17600.0,"2021-12-03 12:32:53.382897","","","","","","",""
16.0,0.10359489172697067,0.001992037030262826,"train",17620.0,"2021-12-03 12:32:57.030827","","","","","","",""
16.0,0.0544104278087616,0.0019918251247474567,"train",17640.0,"2021-12-03 12:33:00.642394","","","","","","",""
16.0,0.04256804659962654,0.001991610448156718,"train",17660.0,"2021-12-03 12:33:04.143016","","","","","","",""
16.0,0.0732760950922966,0.0019913930010903996,"train",17680.0,"2021-12-03 12:33:07.807179","","","","","","",""
16.0,0.04569561779499054,0.001991172784156033,"train",17700.0,"2021-12-03 12:33:11.326747","","","","","","",""
16.0,0.07437888532876968,0.0019909497979688877,"train",17720.0,"2021-12-03 12:33:15.059011","","","","","","",""
16.0,0.060247160494327545,0.0019907240431519713,"train",17740.0,"2021-12-03 12:33:18.607876","","","","","","",""
16.0,0.032923899590969086,0.001990495520336026,"train",17760.0,"2021-12-03 12:33:22.196378","","","","","","",""
16.0,0.047414764761924744,0.0019902642301595284,"train",17780.0,"2021-12-03 12:33:25.981756","","","","","","",""
16.0,0.05458967760205269,0.001990030173268685,"train",17800.0,"2021-12-03 12:33:29.610193","","","","","","",""
16.0,0.047075144946575165,0.0019897933503174345,"train",17820.0,"2021-12-03 12:33:33.290485","","","","","","",""
16.0,0.04975255951285362,0.0019895537619674425,"train",17840.0,"2021-12-03 12:33:36.970196","","","","","","",""
16.0,0.07142967730760574,0.001989311408888101,"train",17860.0,"2021-12-03 12:33:40.381280","","","","","","",""
16.0,0.04265851899981499,0.001989066291756527,"train",17880.0,"2021-12-03 12:33:44.006839","","","","","","",""
16.0,0.052149903029203415,0.00198881841125756,"train",17900.0,"2021-12-03 12:33:47.605906","","","","","","",""
16.0,0.08120619505643845,0.0019885677680837595,"train",17920.0,"2021-12-03 12:33:51.205633","","","","","","",""
16.0,0.049297794699668884,0.001988314362935404,"train",17940.0,"2021-12-03 12:33:54.944745","","","","","","",""
16.0,0.05119217559695244,0.0019880581965204896,"train",17960.0,"2021-12-03 12:33:58.463744","","","","","","",""
16.0,0.07216053456068039,0.0019877992695547255,"train",17980.0,"2021-12-03 12:34:01.955453","","","","","","",""
16.0,0.05402520298957825,0.0019875375827615354,"train",18000.0,"2021-12-03 12:34:05.636506","","","","","","",""
16.0,0.08393152058124542,0.0019872731368720527,"train",18020.0,"2021-12-03 12:34:09.178838","","","","","","",""
16.0,0.05515781790018082,0.00198700593262512,"train",18040.0,"2021-12-03 12:34:12.679037","","","","","","",""
16.0,0.0352192148566246,0.001986735970767286,"train",18060.0,"2021-12-03 12:34:16.339174","","","","","","",""
16.0,0.08038754016160965,0.001986463252052804,"train",18080.0,"2021-12-03 12:34:19.795427","","","","","","",""
16.0,0.03492022305727005,0.0019861877772436305,"train",18100.0,"2021-12-03 12:34:23.567821","","","","","","",""
16.0,0.08986491709947586,0.001985909547109422,"train",18120.0,"2021-12-03 12:34:27.133982","","","","","","",""
16.0,0.05916757136583328,0.001985628562427533,"train",18140.0,"2021-12-03 12:34:30.606003","","","","","","",""
16.0,0.09479587525129318,0.001985344823983014,"train",18160.0,"2021-12-03 12:34:34.117514","","","","","","",""
16.0,0.06010827422142029,0.001985058332568609,"train",18180.0,"2021-12-03 12:34:37.642950","","","","","","",""
16.0,0.049777399748563766,0.001984769088984755,"train",18200.0,"2021-12-03 12:34:41.283419","","","","","","",""
16.0,0.04806876182556152,0.001984477094039576,"train",18220.0,"2021-12-03 12:34:45.076997","","","","","","",""
16.0,0.08064235746860504,0.001984182348548885,"train",18240.0,"2021-12-03 12:34:48.708729","","","","","","",""
16.0,"","","train",18258.0,"2021-12-03 12:36:36.707236",0.679109364767518,0.7561321878843804,0.9819927057185792,0.7406642401924189,0.6528601436086208,0.6763859485143654,0.4626847781697183
16.0,"","","val",18258.0,"2021-12-03 12:37:04.260478",0.6168386872318219,0.6433797275240711,0.962303920358358,0.6710250501276265,0.5678015269331703,0.5889189700266468,0.3775615424514512
17.0,0.059106167405843735,0.00198388485333618,"train",18260.0,"2021-12-03 12:37:06.662185","","","","","","",""
17.0,0.058974239975214005,0.0019835846092326396,"train",18280.0,"2021-12-03 12:37:10.317609","","","","","","",""
17.0,0.04511679336428642,0.0019832816170771246,"train",18300.0,"2021-12-03 12:37:13.893628","","","","","","",""
17.0,0.0396406389772892,0.001982975877716172,"train",18320.0,"2021-12-03 12:37:17.816807","","","","","","",""
17.0,0.040353648364543915,0.0019826673920039957,"train",18340.0,"2021-12-03 12:37:21.470504","","","","","","",""
17.0,0.047734372317790985,0.0019823561608024822,"train",18360.0,"2021-12-03 12:37:25.068867","","","","","","",""
17.0,0.057476457208395004,0.0019820421849811886,"train",18380.0,"2021-12-03 12:37:28.690660","","","","","","",""
17.0,0.08110574632883072,0.0019817254654173402,"train",18400.0,"2021-12-03 12:37:32.203542","","","","","","",""
17.0,0.04097169637680054,0.0019814060029958278,"train",18420.0,"2021-12-03 12:37:36.035492","","","","","","",""
17.0,0.05658373609185219,0.001981083798609206,"train",18440.0,"2021-12-03 12:37:39.675410","","","","","","",""
17.0,0.07992298156023026,0.0019807588531576908,"train",18460.0,"2021-12-03 12:37:43.228584","","","","","","",""
17.0,0.06251559406518936,0.0019804311675491555,"train",18480.0,"2021-12-03 12:37:46.987115","","","","","","",""
17.0,0.0375446118414402,0.00198010074269913,"train",18500.0,"2021-12-03 12:37:50.630489","","","","","","",""
17.0,0.052476152777671814,0.0019797675795307965,"train",18520.0,"2021-12-03 12:37:54.091537","","","","","","",""
17.0,0.07815880328416824,0.0019794316789749885,"train",18540.0,"2021-12-03 12:37:57.866282","","","","","","",""
17.0,0.07052293419837952,0.0019790930419701877,"train",18560.0,"2021-12-03 12:38:01.493931","","","","","","",""
17.0,0.06595154106616974,0.0019787516694625214,"train",18580.0,"2021-12-03 12:38:05.077233","","","","","","",""
17.0,0.06825564056634903,0.0019784075624057584,"train",18600.0,"2021-12-03 12:38:08.623733","","","","","","",""
17.0,0.05381392315030098,0.0019780607217613094,"train",18620.0,"2021-12-03 12:38:12.064141","","","","","","",""
17.0,0.07693163305521011,0.001977711148498221,"train",18640.0,"2021-12-03 12:38:15.795900","","","","","","",""
17.0,0.0789877325296402,0.0019773588435931756,"train",18660.0,"2021-12-03 12:38:19.443215","","","","","","",""
17.0,0.07807880640029907,0.0019770038080304873,"train",18680.0,"2021-12-03 12:38:22.998505","","","","","","",""
17.0,0.08877775073051453,0.001976646042802099,"train",18700.0,"2021-12-03 12:38:26.650125","","","","","","",""
17.0,0.05405673384666443,0.0019762855489075808,"train",18720.0,"2021-12-03 12:38:30.121854","","","","","","",""
17.0,0.06371680647134781,0.001975922327354126,"train",18740.0,"2021-12-03 12:38:33.598351","","","","","","",""
17.0,0.07532106339931488,0.001975556379156549,"train",18760.0,"2021-12-03 12:38:37.242158","","","","","","",""
17.0,0.04296416789293289,0.0019751877053372823,"train",18780.0,"2021-12-03 12:38:40.735984","","","","","","",""
17.0,0.06301167607307434,0.001974816306926373,"train",18800.0,"2021-12-03 12:38:44.437975","","","","","","",""
17.0,0.05796016380190849,0.001974442184961482,"train",18820.0,"2021-12-03 12:38:47.941135","","","","","","",""
17.0,0.03674164414405823,0.0019740653404878776,"train",18840.0,"2021-12-03 12:38:51.543026","","","","","","",""
17.0,0.07403144985437393,0.0019736857745584362,"train",18860.0,"2021-12-03 12:38:55.222131","","","","","","",""
17.0,0.04567612335085869,0.0019733034882336367,"train",18880.0,"2021-12-03 12:38:58.677848","","","","","","",""
17.0,0.076142817735672,0.0019729184825815586,"train",18900.0,"2021-12-03 12:39:02.144998","","","","","","",""
17.0,0.04735959321260452,0.0019725307586778806,"train",18920.0,"2021-12-03 12:39:05.869080","","","","","","",""
17.0,0.04356205463409424,0.001972140317605874,"train",18940.0,"2021-12-03 12:39:09.327664","","","","","","",""
17.0,0.04405111074447632,0.0019717471604564028,"train",18960.0,"2021-12-03 12:39:13.023920","","","","","","",""
17.0,0.039754170924425125,0.0019713512883279185,"train",18980.0,"2021-12-03 12:39:16.635646","","","","","","",""
17.0,0.05049232393503189,0.00197095270232646,"train",19000.0,"2021-12-03 12:39:20.261919","","","","","","",""
17.0,0.05516858771443367,0.001970551403565646,"train",19020.0,"2021-12-03 12:39:24.148154","","","","","","",""
17.0,0.07091600447893143,0.0019701473931666765,"train",19040.0,"2021-12-03 12:39:27.877288","","","","","","",""
17.0,0.05510575696825981,0.001969740672258327,"train",19060.0,"2021-12-03 12:39:31.457906","","","","","","",""
17.0,0.0855136513710022,0.0019693312419769454,"train",19080.0,"2021-12-03 12:39:35.133003","","","","","","",""
17.0,0.05108838528394699,0.0019689191034664498,"train",19100.0,"2021-12-03 12:39:38.720483","","","","","","",""
17.0,0.0868600532412529,0.0019685042578783257,"train",19120.0,"2021-12-03 12:39:42.353412","","","","","","",""
17.0,0.07220718264579773,0.00196808670637162,"train",19140.0,"2021-12-03 12:39:46.061898","","","","","","",""
17.0,0.042336538434028625,0.001967666450112942,"train",19160.0,"2021-12-03 12:39:49.543474","","","","","","",""
17.0,0.05919753015041351,0.001967243490276456,"train",19180.0,"2021-12-03 12:39:53.277085","","","","","","",""
17.0,0.03864007070660591,0.0019668178280438818,"train",19200.0,"2021-12-03 12:39:56.823412","","","","","","",""
17.0,0.049605488777160645,0.0019663894646044875,"train",19220.0,"2021-12-03 12:40:00.397235","","","","","","",""
17.0,0.08288653939962387,0.001965958401155089,"train",19240.0,"2021-12-03 12:40:04.117822","","","","","","",""
17.0,0.08209794014692307,0.0019655246389000463,"train",19260.0,"2021-12-03 12:40:07.636632","","","","","","",""
17.0,0.06225714832544327,0.0019650881790512597,"train",19280.0,"2021-12-03 12:40:11.141038","","","","","","",""
17.0,0.04513951763510704,0.001964649022828165,"train",19300.0,"2021-12-03 12:40:14.794557","","","","","","",""
17.0,0.06085333600640297,0.0019642071714577325,"train",19320.0,"2021-12-03 12:40:18.335807","","","","","","",""
17.0,"","","train",19332.0,"2021-12-03 12:42:06.520005",0.6761405806592448,0.7707854489838273,0.9827604226112883,0.7630355180299467,0.6796651681586753,0.7037855939815644,0.48218822864545197
17.0,"","","val",19332.0,"2021-12-03 12:42:33.976453",0.60912675402992,0.6434193676545792,0.9629425604421566,0.6877054642983399,0.5879863779437844,0.60534828085545,0.3873695462606466
18.0,0.059733983129262924,0.0019637626261744634,"train",19340.0,"2021-12-03 12:42:37.760395","","","","","","",""
18.0,0.06083197891712189,0.001963315388220384,"train",19360.0,"2021-12-03 12:42:41.306619","","","","","","",""
18.0,0.0817318931221962,0.0019628654588450443,"train",19380.0,"2021-12-03 12:42:44.862296","","","","","","",""
18.0,0.046861328184604645,0.001962412839305514,"train",19400.0,"2021-12-03 12:42:48.626255","","","","","","",""
18.0,0.08457913249731064,0.0019619575308663785,"train",19420.0,"2021-12-03 12:42:52.163536","","","","","","",""
18.0,0.04105653986334801,0.001961499534799737,"train",19440.0,"2021-12-03 12:42:55.692064","","","","","","",""
18.0,0.05025741830468178,0.001961038852385196,"train",19460.0,"2021-12-03 12:42:59.405450","","","","","","",""
18.0,0.04370000958442688,0.0019605754849098683,"train",19480.0,"2021-12-03 12:43:02.781112","","","","","","",""
18.0,0.10480274260044098,0.0019601094336683693,"train",19500.0,"2021-12-03 12:43:06.498292","","","","","","",""
18.0,0.09613396972417831,0.0019596406999628116,"train",19520.0,"2021-12-03 12:43:09.972692","","","","","","",""
18.0,0.05321032926440239,0.0019591692851028022,"train",19540.0,"2021-12-03 12:43:13.630007","","","","","","",""
18.0,0.057371314615011215,0.001958695190405441,"train",19560.0,"2021-12-03 12:43:17.413556","","","","","","",""
18.0,0.04182775318622589,0.001958218417195312,"train",19580.0,"2021-12-03 12:43:20.893209","","","","","","",""
18.0,0.04932575300335884,0.001957738966804486,"train",19600.0,"2021-12-03 12:43:24.404844","","","","","","",""
18.0,0.07654770463705063,0.001957256840572511,"train",19620.0,"2021-12-03 12:43:28.205755","","","","","","",""
18.0,0.05956236273050308,0.0019567720398464133,"train",19640.0,"2021-12-03 12:43:31.745280","","","","","","",""
18.0,0.06419313699007034,0.00195628456598069,"train",19660.0,"2021-12-03 12:43:35.505914","","","","","","",""
18.0,0.046376973390579224,0.001955794420337307,"train",19680.0,"2021-12-03 12:43:39.035118","","","","","","",""
18.0,0.05301507189869881,0.0019553016042856957,"train",19700.0,"2021-12-03 12:43:42.498090","","","","","","",""
18.0,0.06393147259950638,0.001954806119202748,"train",19720.0,"2021-12-03 12:43:46.142940","","","","","","",""
18.0,0.0956747755408287,0.001954307966472812,"train",19740.0,"2021-12-03 12:43:49.481011","","","","","","",""
18.0,0.05651402100920677,0.0019538071474876914,"train",19760.0,"2021-12-03 12:43:52.826949","","","","","","",""
18.0,0.06032828241586685,0.001953303663646636,"train",19780.0,"2021-12-03 12:43:56.344688","","","","","","",""
18.0,0.05991847813129425,0.0019527975163563436,"train",19800.0,"2021-12-03 12:43:59.852412","","","","","","",""
18.0,0.05654415115714073,0.0019522887070309524,"train",19820.0,"2021-12-03 12:44:03.394815","","","","","","",""
18.0,0.04448409005999565,0.0019517772370920379,"train",19840.0,"2021-12-03 12:44:07.076168","","","","","","",""
18.0,0.04750172048807144,0.0019512631079686104,"train",19860.0,"2021-12-03 12:44:10.530712","","","","","","",""
18.0,0.056569065898656845,0.001950746321097108,"train",19880.0,"2021-12-03 12:44:14.153002","","","","","","",""
18.0,0.06039170175790787,0.0019502268779213957,"train",19900.0,"2021-12-03 12:44:17.717240","","","","","","",""
18.0,0.035833630710840225,0.0019497047798927598,"train",19920.0,"2021-12-03 12:44:21.352277","","","","","","",""
18.0,0.038976725190877914,0.001949180028469903,"train",19940.0,"2021-12-03 12:44:25.216985","","","","","","",""
18.0,0.035294562578201294,0.0019486526251189435,"train",19960.0,"2021-12-03 12:44:28.812470","","","","","","",""
18.0,0.0542563758790493,0.0019481225713134064,"train",19980.0,"2021-12-03 12:44:32.426839","","","","","","",""
18.0,0.03433810919523239,0.0019475898685342235,"train",20000.0,"2021-12-03 12:44:36.204868","","","","","","",""
18.0,0.05829525366425514,0.0019470545182697272,"train",20020.0,"2021-12-03 12:44:39.818192","","","","","","",""
18.0,0.05251728743314743,0.001946516522015647,"train",20040.0,"2021-12-03 12:44:43.523441","","","","","","",""
18.0,0.050642918795347214,0.0019459758812751047,"train",20060.0,"2021-12-03 12:44:47.125088","","","","","","",""
18.0,0.04570765420794487,0.0019454325975586106,"train",20080.0,"2021-12-03 12:44:50.831632","","","","","","",""
18.0,0.04700763523578644,0.0019448866723840602,"train",20100.0,"2021-12-03 12:44:54.593786","","","","","","",""
18.0,0.05920280143618584,0.001944338107276728,"train",20120.0,"2021-12-03 12:44:58.093047","","","","","","",""
18.0,0.03943886235356331,0.0019437869037692644,"train",20140.0,"2021-12-03 12:45:01.709814","","","","","","",""
18.0,0.08122320473194122,0.0019432330634016912,"train",20160.0,"2021-12-03 12:45:05.336902","","","","","","",""
18.0,0.08359433710575104,0.0019426765877213986,"train",20180.0,"2021-12-03 12:45:08.835278","","","","","","",""
18.0,0.06012400612235069,0.0019421174782831383,"train",20200.0,"2021-12-03 12:45:12.548311","","","","","","",""
18.0,0.04184045270085335,0.0019415557366490208,"train",20220.0,"2021-12-03 12:45:16.203439","","","","","","",""
18.0,0.08314823359251022,0.0019409913643885113,"train",20240.0,"2021-12-03 12:45:19.823444","","","","","","",""
