"epoch","loss","lr","part","step","time","accuracy","auprc","auroc","challenge_metric","f_beta_measure","f_measure","g_beta_measure"
0.0,0.3661840558052063,8.000730236035311e-05,"train",20.0,"2021-11-19 22:31:55.988293","","","","","","",""
0.0,0.16216431558132172,8.002920933031948e-05,"train",40.0,"2021-11-19 22:32:08.462717","","","","","","",""
0.0,0.12699754536151886,8.006572057662293e-05,"train",60.0,"2021-11-19 22:32:17.746505","","","","","","",""
0.0,0.1212611272931099,8.011683554380914e-05,"train",80.0,"2021-11-19 22:32:26.548160","","","","","","",""
0.0,0.1376330405473709,8.018255345425274e-05,"train",100.0,"2021-11-19 22:32:35.450560","","","","","","",""
0.0,0.14445126056671143,8.026287330817079e-05,"train",120.0,"2021-11-19 22:32:44.142444","","","","","","",""
0.0,0.11208249628543854,8.03577938836373e-05,"train",140.0,"2021-11-19 22:32:52.911304","","","","","","",""
0.0,0.10806781053543091,8.04673137366021e-05,"train",160.0,"2021-11-19 22:33:02.204704","","","","","","",""
0.0,0.13054203987121582,8.059143120091187e-05,"train",180.0,"2021-11-19 22:33:10.941964","","","","","","",""
0.0,0.12228269129991531,8.073014438833613e-05,"train",200.0,"2021-11-19 22:33:19.658895","","","","","","",""
0.0,0.12220240384340286,8.088345118859724e-05,"train",220.0,"2021-11-19 22:33:28.299968","","","","","","",""
0.0,0.12162189930677414,8.10513492693996e-05,"train",240.0,"2021-11-19 22:33:37.024450","","","","","","",""
0.0,0.11865410953760147,8.123383607646804e-05,"train",260.0,"2021-11-19 22:33:46.188430","","","","","","",""
0.0,0.1024123951792717,8.143090883358495e-05,"train",280.0,"2021-11-19 22:33:54.847188","","","","","","",""
0.0,0.09909365326166153,8.164256454263295e-05,"train",300.0,"2021-11-19 22:34:03.931822","","","","","","",""
0.0,0.13521632552146912,8.186879998364088e-05,"train",320.0,"2021-11-19 22:34:12.963222","","","","","","",""
0.0,0.10147955268621445,8.210961171483213e-05,"train",340.0,"2021-11-19 22:34:21.656856","","","","","","",""
0.0,0.10681024193763733,8.236499607267717e-05,"train",360.0,"2021-11-19 22:34:30.849672","","","","","","",""
0.0,0.10006172209978104,8.26349491719505e-05,"train",380.0,"2021-11-19 22:34:39.515701","","","","","","",""
0.0,0.10414779931306839,8.291946690578713e-05,"train",400.0,"2021-11-19 22:34:48.187498","","","","","","",""
0.0,0.10016507655382156,8.321854494574774e-05,"train",420.0,"2021-11-19 22:34:57.240021","","","","","","",""
0.0,0.0974356085062027,8.353217874188293e-05,"train",440.0,"2021-11-19 22:35:05.906336","","","","","","",""
0.0,0.08950492739677429,8.38603635228035e-05,"train",460.0,"2021-11-19 22:35:15.135695","","","","","","",""
0.0,0.09698095917701721,8.420309429575212e-05,"train",480.0,"2021-11-19 22:35:23.869109","","","","","","",""
0.0,0.08511536568403244,8.456036584667914e-05,"train",500.0,"2021-11-19 22:35:32.584615","","","","","","",""
0.0,0.07885605841875076,8.493217274032315e-05,"train",520.0,"2021-11-19 22:35:41.271831","","","","","","",""
0.0,0.08755559474229813,8.531850932029235e-05,"train",540.0,"2021-11-19 22:35:49.897131","","","","","","",""
0.0,0.12184145301580429,8.571936970915212e-05,"train",560.0,"2021-11-19 22:35:59.028520","","","","","","",""
0.0,0.10257405787706375,8.613474780851246e-05,"train",580.0,"2021-11-19 22:36:07.659048","","","","","","",""
0.0,0.10036622732877731,8.656463729912224e-05,"train",600.0,"2021-11-19 22:36:16.325393","","","","","","",""
0.0,0.08216241747140884,8.700903164096468e-05,"train",620.0,"2021-11-19 22:36:25.111259","","","","","","",""
0.0,0.0728427842259407,8.746792407335769e-05,"train",640.0,"2021-11-19 22:36:33.869672","","","","","","",""
0.0,0.08737760782241821,8.794130761505497e-05,"train",660.0,"2021-11-19 22:36:43.131701","","","","","","",""
0.0,0.10053505003452301,8.842917506435462e-05,"train",680.0,"2021-11-19 22:36:51.942151","","","","","","",""
0.0,0.09754370152950287,8.893151899920645e-05,"train",700.0,"2021-11-19 22:37:00.745471","","","","","","",""
0.0,0.10445211827754974,8.944833177732632e-05,"train",720.0,"2021-11-19 22:37:09.541666","","","","","","",""
0.0,0.0669279545545578,8.997960553631186e-05,"train",740.0,"2021-11-19 22:37:18.209349","","","","","","",""
0.0,0.07457739859819412,9.052533219376224e-05,"train",760.0,"2021-11-19 22:37:27.364706","","","","","","",""
0.0,0.08939752727746964,9.108550344740104e-05,"train",780.0,"2021-11-19 22:37:36.075782","","","","","","",""
0.0,0.09297922998666763,9.166011077520208e-05,"train",800.0,"2021-11-19 22:37:44.897988","","","","","","",""
0.0,0.07477235049009323,9.224914543552059e-05,"train",820.0,"2021-11-19 22:37:53.831377","","","","","","",""
0.0,0.0781325027346611,9.285259846722417e-05,"train",840.0,"2021-11-19 22:38:02.785701","","","","","","",""
0.0,0.08421923965215683,9.34704606898307e-05,"train",860.0,"2021-11-19 22:38:11.948148","","","","","","",""
0.0,0.0745498538017273,9.410272270364735e-05,"train",880.0,"2021-11-19 22:38:20.714260","","","","","","",""
0.0,0.08124440908432007,9.474937488991348e-05,"train",900.0,"2021-11-19 22:38:29.653990","","","","","","",""
0.0,0.0766417607665062,9.541040741094719e-05,"train",920.0,"2021-11-19 22:38:38.652842","","","","","","",""
0.0,0.0770600363612175,9.608581021029522e-05,"train",940.0,"2021-11-19 22:38:47.333441","","","","","","",""
0.0,0.08935786783695221,9.677557301288509e-05,"train",960.0,"2021-11-19 22:38:56.036168","","","","","","",""
0.0,0.07294487953186035,9.747968532518238e-05,"train",980.0,"2021-11-19 22:39:05.301551","","","","","","",""
0.0,0.08359672874212265,9.819813643535029e-05,"train",1000.0,"2021-11-19 22:39:14.034012","","","","","","",""
0.0,0.09792326390743256,9.893091541341185e-05,"train",1020.0,"2021-11-19 22:39:22.855975","","","","","","",""
0.0,0.07470134645700455,9.967801111141644e-05,"train",1040.0,"2021-11-19 22:39:31.580924","","","","","","",""
0.0,0.06839068979024887,0.00010043941216361023,"train",1060.0,"2021-11-19 22:39:40.328145","","","","","","",""
0.0,"","","train",1074.0,"2021-11-19 22:44:34.626357",0.4517499818089209,0.3545607855063477,0.8771193147664906,0.3853538243701503,0.21128648311404014,0.21023976493584817,0.14054413628653736
0.0,"","","val",1074.0,"2021-11-19 22:45:50.246958",0.4483938304534385,0.35301995105473605,0.8727473728893981,0.3800201320732679,0.20873637977580117,0.20865777419619974,0.1374961352213922
1.0,0.08989329636096954,0.00010121510698660771,"train",1080.0,"2021-11-19 22:45:57.224668","","","","","","",""
1.0,0.08544356375932693,0.00010200508377956928,"train",1100.0,"2021-11-19 22:46:05.849270","","","","","","",""
1.0,0.08013592660427094,0.00010280933052437993,"train",1120.0,"2021-11-19 22:46:14.388325","","","","","","",""
1.0,0.08449859917163849,0.00010362783498583223,"train",1140.0,"2021-11-19 22:46:23.001499","","","","","","",""
1.0,0.08895237743854523,0.0001044605847118124,"train",1160.0,"2021-11-19 22:46:31.577521","","","","","","",""
1.0,0.07083914428949356,0.0001053075670334907,"train",1180.0,"2021-11-19 22:46:40.743804","","","","","","",""
1.0,0.0748986303806305,0.00010616876906551181,"train",1200.0,"2021-11-19 22:46:49.383232","","","","","","",""
1.0,0.07942233234643936,0.0001070441777061941,"train",1220.0,"2021-11-19 22:46:57.908720","","","","","","",""
1.0,0.07702977955341339,0.00010793377963772563,"train",1240.0,"2021-11-19 22:47:06.466018","","","","","","",""
1.0,0.06937302649021149,0.0001088375613263698,"train",1260.0,"2021-11-19 22:47:15.055887","","","","","","",""
1.0,0.08307220786809921,0.00010975550902266908,"train",1280.0,"2021-11-19 22:47:24.099178","","","","","","",""
1.0,0.07372073829174042,0.00011068760876165474,"train",1300.0,"2021-11-19 22:47:32.767472","","","","","","",""
1.0,0.10395336896181107,0.0001116338463630598,"train",1320.0,"2021-11-19 22:47:41.409049","","","","","","",""
1.0,0.08267234265804291,0.00011259420743153455,"train",1340.0,"2021-11-19 22:47:50.114890","","","","","","",""
1.0,0.06494547426700592,0.00011356867735686535,"train",1360.0,"2021-11-19 22:47:58.993171","","","","","","",""
1.0,0.08575647324323654,0.00011455724131419621,"train",1380.0,"2021-11-19 22:48:08.013007","","","","","","",""
1.0,0.07475121319293976,0.00011555988426425654,"train",1400.0,"2021-11-19 22:48:16.537840","","","","","","",""
1.0,0.06185338273644447,0.00011657659095358746,"train",1420.0,"2021-11-19 22:48:25.101658","","","","","","",""
1.0,0.08382139354944229,0.00011760734591477516,"train",1440.0,"2021-11-19 22:48:33.631960","","","","","","",""
1.0,0.07203337550163269,0.00011865213346668618,"train",1460.0,"2021-11-19 22:48:42.259097","","","","","","",""
1.0,0.07435273379087448,0.00011971093771470502,"train",1480.0,"2021-11-19 22:48:51.417407","","","","","","",""
1.0,0.0560336597263813,0.0001207837425509777,"train",1500.0,"2021-11-19 22:49:00.226071","","","","","","",""
1.0,0.08303606510162354,0.00012187053165465503,"train",1520.0,"2021-11-19 22:49:08.732912","","","","","","",""
1.0,0.059304188936948776,0.000122971288492142,"train",1540.0,"2021-11-19 22:49:17.211253","","","","","","",""
1.0,0.07859692722558975,0.00012408599631734863,"train",1560.0,"2021-11-19 22:49:25.754657","","","","","","",""
1.0,0.0663033276796341,0.00012521463817194542,"train",1580.0,"2021-11-19 22:49:34.903998","","","","","","",""
1.0,0.06442712247371674,0.00012635719688562077,"train",1600.0,"2021-11-19 22:49:43.418400","","","","","","",""
1.0,0.06513157486915588,0.00012751365507634267,"train",1620.0,"2021-11-19 22:49:51.887942","","","","","","",""
1.0,0.06922079622745514,0.0001286839951506226,"train",1640.0,"2021-11-19 22:50:00.429365","","","","","","",""
1.0,0.06287176162004471,0.00012986819930378333,"train",1660.0,"2021-11-19 22:50:09.010861","","","","","","",""
1.0,0.06796178966760635,0.00013106624952023064,"train",1680.0,"2021-11-19 22:50:18.072185","","","","","","",""
1.0,0.09147712588310242,0.00013227812757372545,"train",1700.0,"2021-11-19 22:50:26.570129","","","","","","",""
1.0,0.05267776548862457,0.00013350381502766394,"train",1720.0,"2021-11-19 22:50:35.080133","","","","","","",""
1.0,0.07604140043258667,0.00013474329323535494,"train",1740.0,"2021-11-19 22:50:43.725242","","","","","","",""
1.0,0.07320187240839005,0.0001359965433403059,"train",1760.0,"2021-11-19 22:50:52.364151","","","","","","",""
1.0,0.08343883603811264,0.00013726354627650872,"train",1780.0,"2021-11-19 22:51:01.420302","","","","","","",""
1.0,0.05844973400235176,0.00013854428276873052,"train",1800.0,"2021-11-19 22:51:09.965767","","","","","","",""
1.0,0.08678179979324341,0.00013983873333280506,"train",1820.0,"2021-11-19 22:51:18.512045","","","","","","",""
1.0,0.07855190336704254,0.00014114687827593156,"train",1840.0,"2021-11-19 22:51:27.142105","","","","","","",""
1.0,0.06511183828115463,0.00014246869769697352,"train",1860.0,"2021-11-19 22:51:35.822622","","","","","","",""
1.0,0.07588902860879898,0.00014380417148676054,"train",1880.0,"2021-11-19 22:51:44.921286","","","","","","",""
1.0,0.05972493812441826,0.00014515327932839404,"train",1900.0,"2021-11-19 22:51:53.530904","","","","","","",""
1.0,0.07882209867238998,0.0001465160006975598,"train",1920.0,"2021-11-19 22:52:02.022597","","","","","","",""
1.0,0.06339196860790253,0.00014789231486283454,"train",1940.0,"2021-11-19 22:52:10.559193","","","","","","",""
1.0,0.08782003819942474,0.00014928220088600633,"train",1960.0,"2021-11-19 22:52:19.116398","","","","","","",""
1.0,0.055538538843393326,0.00015068563762239045,"train",1980.0,"2021-11-19 22:52:27.712611","","","","","","",""
1.0,0.050328779965639114,0.00015210260372115238,"train",2000.0,"2021-11-19 22:52:36.848489","","","","","","",""
1.0,0.07720734924077988,0.00015353307762563115,"train",2020.0,"2021-11-19 22:52:45.461912","","","","","","",""
1.0,0.07490230351686478,0.00015497703757366872,"train",2040.0,"2021-11-19 22:52:53.990345","","","","","","",""
1.0,0.08313634246587753,0.00015643446159794,"train",2060.0,"2021-11-19 22:53:02.524096","","","","","","",""
1.0,0.08436349779367447,0.0001579053275262887,"train",2080.0,"2021-11-19 22:53:11.074273","","","","","","",""
1.0,0.07196900993585587,0.00015938961298206183,"train",2100.0,"2021-11-19 22:53:20.137197","","","","","","",""
1.0,0.06309002637863159,0.00016088729538445297,"train",2120.0,"2021-11-19 22:53:28.821278","","","","","","",""
1.0,0.06583454459905624,0.000162398351948844,"train",2140.0,"2021-11-19 22:53:37.424268","","","","","","",""
1.0,"","","train",2148.0,"2021-11-19 22:58:17.074053",0.4773921269009678,0.43521399805156247,0.910801749738357,0.4851130506345258,0.3397850328479785,0.3382386798816228,0.22390440743884188
1.0,"","","val",2148.0,"2021-11-19 22:59:31.209651",0.4688043604314044,0.4271830335122347,0.9074104359359153,0.4746530837554254,0.33596271747139006,0.33309230894005787,0.21838658653840604
2.0,0.0451711006462574,0.00016392275968715297,"train",2160.0,"2021-11-19 22:59:40.741291","","","","","","",""
2.0,0.07100534439086914,0.00016546049540818223,"train",2180.0,"2021-11-19 22:59:49.342776","","","","","","",""
2.0,0.05205070227384567,0.00016701153571797313,"train",2200.0,"2021-11-19 22:59:58.449897","","","","","","",""
2.0,0.05577818304300308,0.00016857585702016015,"train",2220.0,"2021-11-19 23:00:06.978209","","","","","","",""
2.0,0.06363535672426224,0.00017015343551633126,"train",2240.0,"2021-11-19 23:00:15.536607","","","","","","",""
2.0,0.08594102412462234,0.0001717442472063892,"train",2260.0,"2021-11-19 23:00:24.055484","","","","","","",""
2.0,0.10090834647417068,0.00017334826788891681,"train",2280.0,"2021-11-19 23:00:32.554173","","","","","","",""
2.0,0.06400054693222046,0.00017496547316154555,"train",2300.0,"2021-11-19 23:00:41.689371","","","","","","",""
2.0,0.06015285104513168,0.00017659583842132573,"train",2320.0,"2021-11-19 23:00:50.162015","","","","","","",""
2.0,0.07562985271215439,0.00017823933886510217,"train",2340.0,"2021-11-19 23:00:58.644122","","","","","","",""
2.0,0.08174032717943192,0.00017989594948989015,"train",2360.0,"2021-11-19 23:01:07.214341","","","","","","",""
2.0,0.06588906049728394,0.00018156564509325753,"train",2380.0,"2021-11-19 23:01:15.820313","","","","","","",""
2.0,0.07360704243183136,0.0001832484002737059,"train",2400.0,"2021-11-19 23:01:24.712634","","","","","","",""
2.0,0.08547872304916382,0.00018494418943105877,"train",2420.0,"2021-11-19 23:01:33.169384","","","","","","",""
2.0,0.053637728095054626,0.00018665298676685078,"train",2440.0,"2021-11-19 23:01:41.562512","","","","","","",""
2.0,0.07139389961957932,0.0001883747662847191,"train",2460.0,"2021-11-19 23:01:49.818349","","","","","","",""
2.0,0.04384683445096016,0.00019010950179080112,"train",2480.0,"2021-11-19 23:01:58.267791","","","","","","",""
2.0,0.06262299418449402,0.00019185716689412995,"train",2500.0,"2021-11-19 23:02:07.313101","","","","","","",""
2.0,0.046242017298936844,0.00019361773500703797,"train",2520.0,"2021-11-19 23:02:15.715568","","","","","","",""
2.0,0.04781416803598404,0.00019539117934556168,"train",2540.0,"2021-11-19 23:02:24.345856","","","","","","",""
2.0,0.05797024071216583,0.00019717747292984696,"train",2560.0,"2021-11-19 23:02:32.907407","","","","","","",""
2.0,0.0828150063753128,0.0001989765885845624,"train",2580.0,"2021-11-19 23:02:41.415317","","","","","","",""
2.0,0.07390667498111725,0.00020078849893931014,"train",2600.0,"2021-11-19 23:02:50.746266","","","","","","",""
2.0,0.07040021568536758,0.0002026131764290434,"train",2620.0,"2021-11-19 23:02:59.265559","","","","","","",""
2.0,0.09170666337013245,0.00020445059329448614,"train",2640.0,"2021-11-19 23:03:07.766215","","","","","","",""
2.0,0.06289561092853546,0.00020630072158255497,"train",2660.0,"2021-11-19 23:03:16.258182","","","","","","",""
2.0,0.06854118406772614,0.00020816353314678467,"train",2680.0,"2021-11-19 23:03:24.690856","","","","","","",""
2.0,0.09328798204660416,0.00021003899964775505,"train",2700.0,"2021-11-19 23:03:33.728387","","","","","","",""
2.0,0.06452874094247818,0.00021192709255352473,"train",2720.0,"2021-11-19 23:03:42.235701","","","","","","",""
2.0,0.07053712755441666,0.00021382778314006255,"train",2740.0,"2021-11-19 23:03:50.721589","","","","","","",""
2.0,0.08009079843759537,0.00021574104249168615,"train",2760.0,"2021-11-19 23:03:59.242528","","","","","","",""
2.0,0.0748949870467186,0.00021766684150150133,"train",2780.0,"2021-11-19 23:04:07.674874","","","","","","",""
2.0,0.09005975723266602,0.00021960515087184485,"train",2800.0,"2021-11-19 23:04:16.791827","","","","","","",""
2.0,0.05818597972393036,0.00022155594111472978,"train",2820.0,"2021-11-19 23:04:25.516526","","","","","","",""
2.0,0.06136782094836235,0.0002235191825522959,"train",2840.0,"2021-11-19 23:04:34.011331","","","","","","",""
2.0,0.06262864917516708,0.00022549484531725838,"train",2860.0,"2021-11-19 23:04:42.485226","","","","","","",""
2.0,0.05576599761843681,0.00022748289935336434,"train",2880.0,"2021-11-19 23:04:51.002271","","","","","","",""
2.0,0.06447084993124008,0.00022948331441584964,"train",2900.0,"2021-11-19 23:05:00.100585","","","","","","",""
2.0,0.053399428725242615,0.00023149606007189785,"train",2920.0,"2021-11-19 23:05:08.705699","","","","","","",""
2.0,0.05788072198629379,0.00023352110570110476,"train",2940.0,"2021-11-19 23:05:17.398688","","","","","","",""
2.0,0.05280344560742378,0.00023555842049594305,"train",2960.0,"2021-11-19 23:05:26.036746","","","","","","",""
2.0,0.0638231486082077,0.00023760797346223305,"train",2980.0,"2021-11-19 23:05:34.675224","","","","","","",""
2.0,0.06266536563634872,0.00023966973341961028,"train",3000.0,"2021-11-19 23:05:43.841243","","","","","","",""
2.0,0.04876180365681648,0.0002417436690020044,"train",3020.0,"2021-11-19 23:05:52.418539","","","","","","",""
2.0,0.07510006427764893,0.00024382974865811325,"train",3040.0,"2021-11-19 23:06:01.261444","","","","","","",""
2.0,0.07998718321323395,0.000245927940651884,"train",3060.0,"2021-11-19 23:06:09.829202","","","","","","",""
2.0,0.08079461008310318,0.0002480382130629953,"train",3080.0,"2021-11-19 23:06:18.339496","","","","","","",""
2.0,0.06721837818622589,0.0002501605337873443,"train",3100.0,"2021-11-19 23:06:26.891633","","","","","","",""
2.0,0.05972512066364288,0.0002522948705375337,"train",3120.0,"2021-11-19 23:06:35.943068","","","","","","",""
2.0,0.10451283305883408,0.00025444119084336303,"train",3140.0,"2021-11-19 23:06:44.409455","","","","","","",""
2.0,0.08853651583194733,0.00025659946205232364,"train",3160.0,"2021-11-19 23:06:52.874383","","","","","","",""
2.0,0.052402857691049576,0.0002587696513300941,"train",3180.0,"2021-11-19 23:07:01.337282","","","","","","",""
2.0,0.05177650600671768,0.0002609517256610412,"train",3200.0,"2021-11-19 23:07:09.867935","","","","","","",""
2.0,0.06493185460567474,0.00026314565184872084,"train",3220.0,"2021-11-19 23:07:18.850776","","","","","","",""
2.0,"","","train",3222.0,"2021-11-19 23:11:51.876110",0.5257512915666157,0.49572451372776044,0.9302356379836112,0.5240420836739876,0.3731273813994293,0.3783867057181134,0.2520666001835043
2.0,"","","val",3222.0,"2021-11-19 23:13:05.495714",0.5146120839614983,0.4789812806945128,0.9249322966038368,0.5088844666492788,0.3663329986497971,0.36989285248650844,0.24308282246831453
3.0,0.09286771714687347,0.0002653513965163838,"train",3240.0,"2021-11-19 23:13:17.539836","","","","","","",""
3.0,0.06125292554497719,0.0002675689261074836,"train",3260.0,"2021-11-19 23:13:25.998652","","","","","","",""
3.0,0.05993957072496414,0.00026979820688618605,"train",3280.0,"2021-11-19 23:13:34.449042","","","","","","",""
3.0,0.05473584309220314,0.00027203920493788433,"train",3300.0,"2021-11-19 23:13:42.911204","","","","","","",""
3.0,0.052130088210105896,0.00027429188616971277,"train",3320.0,"2021-11-19 23:13:52.144624","","","","","","",""
3.0,0.05792712792754173,0.0002765562163110668,"train",3340.0,"2021-11-19 23:14:00.699427","","","","","","",""
3.0,0.0847330093383789,0.00027883216091412503,"train",3360.0,"2021-11-19 23:14:09.291984","","","","","","",""
3.0,0.08863979578018188,0.0002811196853543707,"train",3380.0,"2021-11-19 23:14:17.891838","","","","","","",""
3.0,0.059623025357723236,0.00028341875483112134,"train",3400.0,"2021-11-19 23:14:26.551700","","","","","","",""
3.0,0.07702600955963135,0.00028572933436805644,"train",3420.0,"2021-11-19 23:14:35.637827","","","","","","",""
3.0,0.08051306009292603,0.0002880513888137504,"train",3440.0,"2021-11-19 23:14:44.293331","","","","","","",""
3.0,0.08066650480031967,0.0002903848828422063,"train",3460.0,"2021-11-19 23:14:53.153249","","","","","","",""
3.0,0.07060173153877258,0.00029272978095339465,"train",3480.0,"2021-11-19 23:15:01.773113","","","","","","",""
3.0,0.04876318201422691,0.00029508604747379243,"train",3500.0,"2021-11-19 23:15:10.348550","","","","","","",""
3.0,0.06751368194818497,0.00029745364655692653,"train",3520.0,"2021-11-19 23:15:19.411278","","","","","","",""
3.0,0.10238216817378998,0.0002998325421839181,"train",3540.0,"2021-11-19 23:15:28.122701","","","","","","",""
3.0,0.05138265714049339,0.0003022226981640318,"train",3560.0,"2021-11-19 23:15:36.924885","","","","","","",""
3.0,0.06914236396551132,0.00030462407813522494,"train",3580.0,"2021-11-19 23:15:45.724696","","","","","","",""
3.0,0.07667118310928345,0.0003070366455647027,"train",3600.0,"2021-11-19 23:15:54.180601","","","","","","",""
3.0,0.05973527580499649,0.000309460363749471,"train",3620.0,"2021-11-19 23:16:03.177460","","","","","","",""
3.0,0.060254503041505814,0.0003118951958168978,"train",3640.0,"2021-11-19 23:16:11.705091","","","","","","",""
3.0,0.044743675738573074,0.0003143411047252722,"train",3660.0,"2021-11-19 23:16:20.237752","","","","","","",""
3.0,0.05553290247917175,0.0003167980532643691,"train",3680.0,"2021-11-19 23:16:28.799374","","","","","","",""
3.0,0.05413481593132019,0.0003192660040560141,"train",3700.0,"2021-11-19 23:16:37.398513","","","","","","",""
3.0,0.08563981205224991,0.0003217449195546528,"train",3720.0,"2021-11-19 23:16:46.540118","","","","","","",""
3.0,0.05187973752617836,0.00032423476204792244,"train",3740.0,"2021-11-19 23:16:55.058096","","","","","","",""
3.0,0.04386815056204796,0.0003267354936572248,"train",3760.0,"2021-11-19 23:17:03.574705","","","","","","",""
3.0,0.06580697000026703,0.0003292470763383026,"train",3780.0,"2021-11-19 23:17:12.149355","","","","","","",""
3.0,0.0853441134095192,0.0003317694718818192,"train",3800.0,"2021-11-19 23:17:20.716881","","","","","","",""
3.0,0.0675058513879776,0.00033430264191393853,"train",3820.0,"2021-11-19 23:17:29.774123","","","","","","",""
3.0,0.06042183190584183,0.0003368465478969097,"train",3840.0,"2021-11-19 23:17:38.255998","","","","","","",""
3.0,0.0722455382347107,0.0003394011511296533,"train",3860.0,"2021-11-19 23:17:46.732595","","","","","","",""
3.0,0.09587620943784714,0.0003419664127483496,"train",3880.0,"2021-11-19 23:17:55.223349","","","","","","",""
3.0,0.05361355468630791,0.00034454229372703074,"train",3900.0,"2021-11-19 23:18:03.719680","","","","","","",""
3.0,0.05809227004647255,0.00034712875487817314,"train",3920.0,"2021-11-19 23:18:12.811629","","","","","","",""
3.0,0.04739689826965332,0.00034972575685329526,"train",3940.0,"2021-11-19 23:18:21.432555","","","","","","",""
3.0,0.05556792765855789,0.0003523332601435541,"train",3960.0,"2021-11-19 23:18:30.065646","","","","","","",""
3.0,0.07425852119922638,0.00035495122508034916,"train",3980.0,"2021-11-19 23:18:38.806098","","","","","","",""
3.0,0.09599804878234863,0.0003575796118359231,"train",4000.0,"2021-11-19 23:18:47.278011","","","","","","",""
3.0,0.08568703383207321,0.00036021838042396906,"train",4020.0,"2021-11-19 23:18:56.392267","","","","","","",""
3.0,0.04545053839683533,0.0003628674907002389,"train",4040.0,"2021-11-19 23:19:05.022275","","","","","","",""
3.0,0.06059727072715759,0.00036552690236315395,"train",4060.0,"2021-11-19 23:19:13.797653","","","","","","",""
3.0,0.08678935468196869,0.00036819657495441773,"train",4080.0,"2021-11-19 23:19:22.433488","","","","","","",""
3.0,0.07211709022521973,0.0003708764678596317,"train",4100.0,"2021-11-19 23:19:31.104863","","","","","","",""
3.0,0.05459269508719444,0.00037356654030891293,"train",4120.0,"2021-11-19 23:19:39.621743","","","","","","",""
3.0,0.05431881919503212,0.0003762667513775148,"train",4140.0,"2021-11-19 23:19:48.638828","","","","","","",""
3.0,0.06493520736694336,0.0003789770599864498,"train",4160.0,"2021-11-19 23:19:57.134609","","","","","","",""
3.0,0.06455957144498825,0.000381697424903113,"train",4180.0,"2021-11-19 23:20:05.701514","","","","","","",""
3.0,0.0717446580529213,0.0003844278047419108,"train",4200.0,"2021-11-19 23:20:14.196438","","","","","","",""
3.0,0.09165729582309723,0.0003871681579648903,"train",4220.0,"2021-11-19 23:20:22.740380","","","","","","",""
3.0,0.07841827720403671,0.0003899184428823709,"train",4240.0,"2021-11-19 23:20:31.804559","","","","","","",""
3.0,0.05861901491880417,0.0003926786176535783,"train",4260.0,"2021-11-19 23:20:40.325063","","","","","","",""
3.0,0.05762387439608574,0.0003954486402872818,"train",4280.0,"2021-11-19 23:20:48.825167","","","","","","",""
3.0,"","","train",4296.0,"2021-11-19 23:25:28.404464",0.5538528705522812,0.5370299272072796,0.9390499509046003,0.5625127231184905,0.4190104664501323,0.43388437938210855,0.283855653872313
3.0,"","","val",4296.0,"2021-11-19 23:26:43.766328",0.5411109822567551,0.5147903721009205,0.931918004893884,0.5427408931852331,0.4029930661658917,0.415608526728212,0.2682469003811472
4.0,0.055685073137283325,0.0003982284686424324,"train",4300.0,"2021-11-19 23:26:49.882498","","","","","","",""
4.0,0.052356209605932236,0.0004010180604288045,"train",4320.0,"2021-11-19 23:26:58.829001","","","","","","",""
4.0,0.06446067988872528,0.00040381737320763873,"train",4340.0,"2021-11-19 23:27:08.417395","","","","","","",""
4.0,0.04709777981042862,0.0004066263643922878,"train",4360.0,"2021-11-19 23:27:17.374232","","","","","","",""
4.0,0.06654449552297592,0.0004094449912488646,"train",4380.0,"2021-11-19 23:27:26.389965","","","","","","",""
4.0,0.07892139256000519,0.0004122732108968923,"train",4400.0,"2021-11-19 23:27:35.183123","","","","","","",""
4.0,0.06913506984710693,0.0004151109803099558,"train",4420.0,"2021-11-19 23:27:44.097174","","","","","","",""
4.0,0.04950682073831558,0.00041795825631635764,"train",4440.0,"2021-11-19 23:27:53.449124","","","","","","",""
4.0,0.050464753061532974,0.0004208149955997739,"train",4460.0,"2021-11-19 23:28:02.313347","","","","","","",""
4.0,0.08365510404109955,0.0004236811546999141,"train",4480.0,"2021-11-19 23:28:11.115151","","","","","","",""
4.0,0.06276024878025055,0.0004265566900131805,"train",4500.0,"2021-11-19 23:28:19.930586","","","","","","",""
4.0,0.056879036128520966,0.0004294415577933337,"train",4520.0,"2021-11-19 23:28:28.777190","","","","","","",""
4.0,0.06053672730922699,0.00043233571415215717,"train",4540.0,"2021-11-19 23:28:38.009474","","","","","","",""
4.0,0.07767299562692642,0.0004352391150601242,"train",4560.0,"2021-11-19 23:28:46.686359","","","","","","",""
4.0,0.05642137676477432,0.0004381517163470684,"train",4580.0,"2021-11-19 23:28:55.284822","","","","","","",""
4.0,0.057077404111623764,0.00044107347370285683,"train",4600.0,"2021-11-19 23:29:03.850653","","","","","","",""
4.0,0.06352388858795166,0.00044400434267806194,"train",4620.0,"2021-11-19 23:29:12.463264","","","","","","",""
4.0,0.05435892567038536,0.00044694427868463907,"train",4640.0,"2021-11-19 23:29:21.700321","","","","","","",""
4.0,0.08286966383457184,0.00044989323699660467,"train",4660.0,"2021-11-19 23:29:30.610087","","","","","","",""
4.0,0.08317389339208603,0.0004528511727507165,"train",4680.0,"2021-11-19 23:29:39.386285","","","","","","",""
4.0,0.0634063109755516,0.00045581804094715645,"train",4700.0,"2021-11-19 23:29:48.404989","","","","","","",""
4.0,0.06074589863419533,0.00045879379645021425,"train",4720.0,"2021-11-19 23:29:57.432807","","","","","","",""
4.0,0.055199649184942245,0.0004617783939889759,"train",4740.0,"2021-11-19 23:30:06.813000","","","","","","",""
4.0,0.048379093408584595,0.0004647717881580103,"train",4760.0,"2021-11-19 23:30:15.759599","","","","","","",""
4.0,0.060678061097860336,0.0004677739334180617,"train",4780.0,"2021-11-19 23:30:24.756752","","","","","","",""
4.0,0.05371547117829323,0.00047078478409674144,"train",4800.0,"2021-11-19 23:30:33.760517","","","","","","",""
4.0,0.047444261610507965,0.00047380429438922305,"train",4820.0,"2021-11-19 23:30:42.671041","","","","","","",""
4.0,0.043909844011068344,0.00047683241835893946,"train",4840.0,"2021-11-19 23:30:51.930448","","","","","","",""
4.0,0.05726530775427818,0.0004798691099382815,"train",4860.0,"2021-11-19 23:31:00.735918","","","","","","",""
4.0,0.06727128475904465,0.0004829143229292986,"train",4880.0,"2021-11-19 23:31:09.584352","","","","","","",""
4.0,0.05655574053525925,0.0004859680110044023,"train",4900.0,"2021-11-19 23:31:18.252410","","","","","","",""
4.0,0.05150599777698517,0.0004890301277070699,"train",4920.0,"2021-11-19 23:31:26.956683","","","","","","",""
4.0,0.0703166052699089,0.0004921006264525525,"train",4940.0,"2021-11-19 23:31:36.145874","","","","","","",""
4.0,0.058166321367025375,0.0004951794605285824,"train",4960.0,"2021-11-19 23:31:45.029821","","","","","","",""
4.0,0.05660570040345192,0.0004982665830960853,"train",4980.0,"2021-11-19 23:31:53.853405","","","","","","",""
4.0,0.07347717881202698,0.0005013619471898913,"train",5000.0,"2021-11-19 23:32:02.484432","","","","","","",""
4.0,0.06452083587646484,0.0005044655057194504,"train",5020.0,"2021-11-19 23:32:11.124147","","","","","","",""
4.0,0.06575953960418701,0.0005075772114695486,"train",5040.0,"2021-11-19 23:32:20.344476","","","","","","",""
4.0,0.08092781156301498,0.0005106970171010257,"train",5060.0,"2021-11-19 23:32:29.049468","","","","","","",""
4.0,0.08249294012784958,0.0005138248751514966,"train",5080.0,"2021-11-19 23:32:37.665688","","","","","","",""
4.0,0.0677335187792778,0.0005169607380360731,"train",5100.0,"2021-11-19 23:32:46.345964","","","","","","",""
4.0,0.050155457109212875,0.000520104558048086,"train",5120.0,"2021-11-19 23:32:55.064119","","","","","","",""
4.0,0.06642190366983414,0.0005232562873598136,"train",5140.0,"2021-11-19 23:33:04.246447","","","","","","",""
4.0,0.05339145287871361,0.0005264158780232072,"train",5160.0,"2021-11-19 23:33:12.908499","","","","","","",""
4.0,0.06310106813907623,0.0005295832819706228,"train",5180.0,"2021-11-19 23:33:21.372251","","","","","","",""
4.0,0.06515555083751678,0.0005327584510155488,"train",5200.0,"2021-11-19 23:33:30.177159","","","","","","",""
4.0,0.05255703628063202,0.000535941336853343,"train",5220.0,"2021-11-19 23:33:39.074099","","","","","","",""
4.0,0.06071474775671959,0.0005391318910619655,"train",5240.0,"2021-11-19 23:33:47.753428","","","","","","",""
4.0,0.0631900206208229,0.0005423300651027144,"train",5260.0,"2021-11-19 23:33:56.896769","","","","","","",""
4.0,0.0524003691971302,0.0005455358103209663,"train",5280.0,"2021-11-19 23:34:05.558224","","","","","","",""
4.0,0.0851607546210289,0.0005487490779469157,"train",5300.0,"2021-11-19 23:34:14.122520","","","","","","",""
4.0,0.050863415002822876,0.000551969819096316,"train",5320.0,"2021-11-19 23:34:22.680910","","","","","","",""
4.0,0.05739149451255798,0.0005551979847712252,"train",5340.0,"2021-11-19 23:34:31.240980","","","","","","",""
4.0,0.06945600360631943,0.0005584335258607489,"train",5360.0,"2021-11-19 23:34:40.375412","","","","","","",""
4.0,"","","train",5370.0,"2021-11-19 23:39:16.439962",0.5546823837590046,0.5546505927723155,0.9429778589719608,0.5715198676783667,0.450283608599582,0.4589378435274891,0.2993310163843988
4.0,"","","val",5370.0,"2021-11-19 23:40:30.982286",0.5425605937608721,0.5248903760258732,0.935598984489377,0.550436806745331,0.43349348834540474,0.4389507902189417,0.2824068332752988
5.0,0.05877598747611046,0.0005616763931417894,"train",5380.0,"2021-11-19 23:40:39.722969","","","","","","",""
5.0,0.046614326536655426,0.0005649265372797939,"train",5400.0,"2021-11-19 23:40:48.320099","","","","","","",""
5.0,0.03463848680257797,0.0005681839088295046,"train",5420.0,"2021-11-19 23:40:56.824899","","","","","","",""
5.0,0.060153331607580185,0.0005714484582357109,"train",5440.0,"2021-11-19 23:41:05.434789","","","","","","",""
5.0,0.09313510358333588,0.0005747201358340048,"train",5460.0,"2021-11-19 23:41:14.636861","","","","","","",""
5.0,0.04625259339809418,0.0005779988918515344,"train",5480.0,"2021-11-19 23:41:23.201168","","","","","","",""
5.0,0.07956361025571823,0.0005812846764077623,"train",5500.0,"2021-11-19 23:41:31.796814","","","","","","",""
5.0,0.05649227276444435,0.0005845774395152243,"train",5520.0,"2021-11-19 23:41:40.377223","","","","","","",""
5.0,0.04574393481016159,0.0005878771310802895,"train",5540.0,"2021-11-19 23:41:48.993052","","","","","","",""
5.0,0.07293901592493057,0.0005911837009039229,"train",5560.0,"2021-11-19 23:41:58.031688","","","","","","",""
5.0,0.047496337443590164,0.0005944970986824485,"train",5580.0,"2021-11-19 23:42:06.494389","","","","","","",""
5.0,0.03707375004887581,0.000597817274008315,"train",5600.0,"2021-11-19 23:42:15.012533","","","","","","",""
5.0,0.06626063585281372,0.0006011441763708635,"train",5620.0,"2021-11-19 23:42:23.658485","","","","","","",""
5.0,0.054970137774944305,0.0006044777551570929,"train",5640.0,"2021-11-19 23:42:32.275123","","","","","","",""
5.0,0.04156390577554703,0.000607817959652434,"train",5660.0,"2021-11-19 23:42:41.389859","","","","","","",""
5.0,0.05192320793867111,0.0006111647390415189,"train",5680.0,"2021-11-19 23:42:49.975043","","","","","","",""
5.0,0.06783221662044525,0.0006145180424089525,"train",5700.0,"2021-11-19 23:42:58.513590","","","","","","",""
5.0,0.05927392840385437,0.0006178778187400902,"train",5720.0,"2021-11-19 23:43:07.106547","","","","","","",""
5.0,0.06161614879965782,0.0006212440169218129,"train",5740.0,"2021-11-19 23:43:15.712434","","","","","","",""
5.0,0.06415937095880508,0.0006246165857433027,"train",5760.0,"2021-11-19 23:43:24.888308","","","","","","",""
5.0,0.067539744079113,0.0006279954738968251,"train",5780.0,"2021-11-19 23:43:33.546558","","","","","","",""
5.0,0.10072372853755951,0.0006313806299785075,"train",5800.0,"2021-11-19 23:43:42.081886","","","","","","",""
5.0,0.05515298619866371,0.0006347720024891209,"train",5820.0,"2021-11-19 23:43:50.635769","","","","","","",""
5.0,0.07013988494873047,0.0006381695398348657,"train",5840.0,"2021-11-19 23:43:59.146869","","","","","","",""
5.0,0.07186800986528397,0.0006415731903281542,"train",5860.0,"2021-11-19 23:44:08.172849","","","","","","",""
5.0,0.09085708856582642,0.0006449829021883979,"train",5880.0,"2021-11-19 23:44:16.716709","","","","","","",""
5.0,0.05342959612607956,0.0006483986235427956,"train",5900.0,"2021-11-19 23:44:25.201314","","","","","","",""
5.0,0.07903197407722473,0.0006518203024271213,"train",5920.0,"2021-11-19 23:44:33.697911","","","","","","",""
5.0,0.07801876217126846,0.0006552478867865169,"train",5940.0,"2021-11-19 23:44:42.265938","","","","","","",""
5.0,0.061207205057144165,0.0006586813244762815,"train",5960.0,"2021-11-19 23:44:50.905191","","","","","","",""
5.0,0.08023746311664581,0.0006621205632626672,"train",5980.0,"2021-11-19 23:45:00.204217","","","","","","",""
5.0,0.05371232330799103,0.0006655655508236717,"train",6000.0,"2021-11-19 23:45:09.024831","","","","","","",""
5.0,0.04575835168361664,0.0006690162347498356,"train",6020.0,"2021-11-19 23:45:17.536309","","","","","","",""
5.0,0.05563143640756607,0.0006724725625450389,"train",6040.0,"2021-11-19 23:45:26.140605","","","","","","",""
5.0,0.05717576667666435,0.0006759344816273003,"train",6060.0,"2021-11-19 23:45:34.688650","","","","","","",""
5.0,0.04977817088365555,0.0006794019393295771,"train",6080.0,"2021-11-19 23:45:44.023907","","","","","","",""
5.0,0.07031990587711334,0.0006828748829005654,"train",6100.0,"2021-11-19 23:45:52.698057","","","","","","",""
5.0,0.05635085701942444,0.0006863532595055041,"train",6120.0,"2021-11-19 23:46:01.278096","","","","","","",""
5.0,0.05809757113456726,0.0006898370162269777,"train",6140.0,"2021-11-19 23:46:10.031180","","","","","","",""
5.0,0.0780133381485939,0.0006933261000657217,"train",6160.0,"2021-11-19 23:46:18.675633","","","","","","",""
5.0,0.06512600928544998,0.000696820457941429,"train",6180.0,"2021-11-19 23:46:27.954444","","","","","","",""
5.0,0.04372663423418999,0.000700320036693557,"train",6200.0,"2021-11-19 23:46:36.573360","","","","","","",""
5.0,0.07998769730329514,0.0007038247830821358,"train",6220.0,"2021-11-19 23:46:45.133940","","","","","","",""
5.0,0.05997433885931969,0.0007073346437885815,"train",6240.0,"2021-11-19 23:46:53.603794","","","","","","",""
5.0,0.04507343843579292,0.000710849565416502,"train",6260.0,"2021-11-19 23:47:02.211335","","","","","","",""
5.0,0.08801046013832092,0.0007143694944925134,"train",6280.0,"2021-11-19 23:47:11.299207","","","","","","",""
5.0,0.08143973350524902,0.0007178943774670524,"train",6300.0,"2021-11-19 23:47:19.778179","","","","","","",""
5.0,0.07266180962324142,0.0007214241607151901,"train",6320.0,"2021-11-19 23:47:28.279930","","","","","","",""
5.0,0.06807605177164078,0.000724958790537449,"train",6340.0,"2021-11-19 23:47:36.833832","","","","","","",""
5.0,0.050235096365213394,0.0007284982131606195,"train",6360.0,"2021-11-19 23:47:45.354916","","","","","","",""
5.0,0.08206222951412201,0.0007320423747385781,"train",6380.0,"2021-11-19 23:47:54.409932","","","","","","",""
5.0,0.04949767887592316,0.0007355912213531054,"train",6400.0,"2021-11-19 23:48:03.055024","","","","","","",""
5.0,0.043614670634269714,0.000739144699014708,"train",6420.0,"2021-11-19 23:48:11.731783","","","","","","",""
5.0,0.0430917926132679,0.0007427027536634401,"train",6440.0,"2021-11-19 23:48:20.558580","","","","","","",""
5.0,"","","train",6444.0,"2021-11-19 23:52:58.458690",0.5763807029032962,0.5908349233510198,0.9493842206124753,0.5961337378981562,0.4779545961089254,0.4905967737947493,0.32062405299618574
5.0,"","","val",6444.0,"2021-11-19 23:54:12.459721",0.5592021338281341,0.5628090622895583,0.9415641999693913,0.5727442169705966,0.4569505555659157,0.46756418136191863,0.2993306311216654
6.0,0.04121541231870651,0.0007462653311697235,"train",6460.0,"2021-11-19 23:54:23.861220","","","","","","",""
6.0,0.06682958453893661,0.0007498323773351733,"train",6480.0,"2021-11-19 23:54:32.991229","","","","","","",""
6.0,0.06265198439359665,0.0007534038378934223,"train",6500.0,"2021-11-19 23:54:41.776819","","","","","","",""
6.0,0.06570830196142197,0.0007569796585109453,"train",6520.0,"2021-11-19 23:54:50.311842","","","","","","",""
6.0,0.0517565980553627,0.0007605597847878862,"train",6540.0,"2021-11-19 23:54:58.878474","","","","","","",""
6.0,0.05306904390454292,0.0007641441622588871,"train",6560.0,"2021-11-19 23:55:07.383392","","","","","","",""
6.0,0.06867392361164093,0.0007677327363939143,"train",6580.0,"2021-11-19 23:55:16.283620","","","","","","",""
6.0,0.0611133798956871,0.0007713254525990895,"train",6600.0,"2021-11-19 23:55:24.894777","","","","","","",""
6.0,0.04068046063184738,0.0007749222562175211,"train",6620.0,"2021-11-19 23:55:33.539711","","","","","","",""
6.0,0.0660284161567688,0.000778523092530133,"train",6640.0,"2021-11-19 23:55:42.200022","","","","","","",""
6.0,0.06457972526550293,0.0007821279067564996,"train",6660.0,"2021-11-19 23:55:50.775762","","","","","","",""
6.0,0.04717486351728439,0.0007857366440556786,"train",6680.0,"2021-11-19 23:55:59.396936","","","","","","",""
6.0,0.06695382297039032,0.0007893492495270442,"train",6700.0,"2021-11-19 23:56:08.425423","","","","","","",""
6.0,0.037394292652606964,0.0007929656682111239,"train",6720.0,"2021-11-19 23:56:17.076210","","","","","","",""
6.0,0.06690210849046707,0.0007965858450904332,"train",6740.0,"2021-11-19 23:56:25.695633","","","","","","",""
6.0,0.05037853866815567,0.000800209725090314,"train",6760.0,"2021-11-19 23:56:34.297184","","","","","","",""
6.0,0.038686275482177734,0.0008038372530797706,"train",6780.0,"2021-11-19 23:56:42.768524","","","","","","",""
6.0,0.05928213894367218,0.0008074683738723109,"train",6800.0,"2021-11-19 23:56:51.705072","","","","","","",""
6.0,0.0433691032230854,0.0008111030322267832,"train",6820.0,"2021-11-19 23:57:00.177008","","","","","","",""
6.0,0.055738188326358795,0.0008147411728482187,"train",6840.0,"2021-11-19 23:57:08.857105","","","","","","",""
6.0,0.045817479491233826,0.0008183827403886721,"train",6860.0,"2021-11-19 23:57:17.502482","","","","","","",""
6.0,0.04271738976240158,0.0008220276794480633,"train",6880.0,"2021-11-19 23:57:26.183794","","","","","","",""
6.0,0.07170172035694122,0.0008256759345750203,"train",6900.0,"2021-11-19 23:57:35.220537","","","","","","",""
6.0,0.03266124054789543,0.0008293274502677234,"train",6920.0,"2021-11-19 23:57:43.729264","","","","","","",""
6.0,0.048856016248464584,0.0008329821709747486,"train",6940.0,"2021-11-19 23:57:52.261915","","","","","","",""
6.0,0.055937089025974274,0.0008366400410959136,"train",6960.0,"2021-11-19 23:58:00.865668","","","","","","",""
6.0,0.0709645077586174,0.000840301004983123,"train",6980.0,"2021-11-19 23:58:09.425724","","","","","","",""
6.0,0.048217445611953735,0.0008439650069412147,"train",7000.0,"2021-11-19 23:58:18.513472","","","","","","",""
6.0,0.052098505198955536,0.0008476319912288095,"train",7020.0,"2021-11-19 23:58:27.046597","","","","","","",""
6.0,0.045307982712984085,0.0008513019020591544,"train",7040.0,"2021-11-19 23:58:35.556573","","","","","","",""
6.0,0.04586876183748245,0.0008549746836009771,"train",7060.0,"2021-11-19 23:58:44.055476","","","","","","",""
6.0,0.08262226730585098,0.0008586502799793306,"train",7080.0,"2021-11-19 23:58:52.591380","","","","","","",""
6.0,0.06562382727861404,0.0008623286352764453,"train",7100.0,"2021-11-19 23:59:01.650859","","","","","","",""
6.0,0.06163454428315163,0.0008660096935325802,"train",7120.0,"2021-11-19 23:59:10.191541","","","","","","",""
6.0,0.05148687586188316,0.0008696933987468731,"train",7140.0,"2021-11-19 23:59:18.669149","","","","","","",""
6.0,0.051990851759910583,0.0008733796948781924,"train",7160.0,"2021-11-19 23:59:27.418492","","","","","","",""
6.0,0.07085907459259033,0.0008770685258459915,"train",7180.0,"2021-11-19 23:59:36.120501","","","","","","",""
6.0,0.06039801239967346,0.0008807598355311595,"train",7200.0,"2021-11-19 23:59:45.235372","","","","","","",""
6.0,0.053254999220371246,0.0008844535677768764,"train",7220.0,"2021-11-19 23:59:53.728449","","","","","","",""
6.0,0.05887139216065407,0.0008881496663894681,"train",7240.0,"2021-11-20 00:00:02.271229","","","","","","",""
6.0,0.07961442321538925,0.0008918480751392592,"train",7260.0,"2021-11-20 00:00:10.864075","","","","","","",""
6.0,0.06049995496869087,0.00089554873776143,"train",7280.0,"2021-11-20 00:00:19.464917","","","","","","",""
6.0,0.08073653280735016,0.0008992515979568724,"train",7300.0,"2021-11-20 00:00:28.613134","","","","","","",""
6.0,0.0408097580075264,0.0009029565993930457,"train",7320.0,"2021-11-20 00:00:37.150716","","","","","","",""
6.0,0.0567721426486969,0.0009066636857048339,"train",7340.0,"2021-11-20 00:00:45.760620","","","","","","",""
6.0,0.05280751734972,0.0009103728004954039,"train",7360.0,"2021-11-20 00:00:54.370511","","","","","","",""
6.0,0.0628754049539566,0.0009140838873370617,"train",7380.0,"2021-11-20 00:01:02.913480","","","","","","",""
6.0,0.07166138291358948,0.0009177968897721136,"train",7400.0,"2021-11-20 00:01:12.210998","","","","","","",""
6.0,0.0607428215444088,0.0009215117513137218,"train",7420.0,"2021-11-20 00:01:20.715671","","","","","","",""
6.0,0.057195257395505905,0.0009252284154467663,"train",7440.0,"2021-11-20 00:01:29.206662","","","","","","",""
6.0,0.049460407346487045,0.0009289468256287042,"train",7460.0,"2021-11-20 00:01:37.833792","","","","","","",""
6.0,0.08702968060970306,0.0009326669252904287,"train",7480.0,"2021-11-20 00:01:46.460044","","","","","","",""
6.0,0.06036386266350746,0.0009363886578371307,"train",7500.0,"2021-11-20 00:01:55.679110","","","","","","",""
6.0,"","","train",7518.0,"2021-11-20 00:06:53.014102",0.5882703921996653,0.6027491357888753,0.9531309797931425,0.6142058762271256,0.48709833675907177,0.509103871035517,0.33011026682051836
6.0,"","","val",7518.0,"2021-11-20 00:08:06.560289",0.5700452278789284,0.5706200137132973,0.9442194245803983,0.5921529331063142,0.468996346789417,0.4865465067779417,0.3126800932544296
7.0,0.05670536682009697,0.0009401119666491604,"train",7520.0,"2021-11-20 00:08:11.854788","","","","","","",""
7.0,0.04098502919077873,0.0009438367950828869,"train",7540.0,"2021-11-20 00:08:20.503359","","","","","","",""
7.0,0.04751669615507126,0.000947563086471561,"train",7560.0,"2021-11-20 00:08:29.166111","","","","","","",""
7.0,0.04320473223924637,0.0009512907841261783,"train",7580.0,"2021-11-20 00:08:37.794659","","","","","","",""
7.0,0.05316393822431564,0.0009550198313363391,"train",7600.0,"2021-11-20 00:08:46.998979","","","","","","",""
7.0,0.07574792206287384,0.0009587501713711128,"train",7620.0,"2021-11-20 00:08:55.657788","","","","","","",""
7.0,0.03649994358420372,0.0009624817474799023,"train",7640.0,"2021-11-20 00:09:04.307706","","","","","","",""
7.0,0.0715448409318924,0.0009662145028933038,"train",7660.0,"2021-11-20 00:09:13.086942","","","","","","",""
7.0,0.05339808389544487,0.0009699483808239733,"train",7680.0,"2021-11-20 00:09:21.592673","","","","","","",""
7.0,0.06297359615564346,0.0009736833244674895,"train",7700.0,"2021-11-20 00:09:30.670968","","","","","","",""
7.0,0.08055875450372696,0.0009774192770032192,"train",7720.0,"2021-11-20 00:09:39.380911","","","","","","",""
7.0,0.05487937480211258,0.0009811561815951785,"train",7740.0,"2021-11-20 00:09:48.087888","","","","","","",""
7.0,0.0549653135240078,0.0009848939813929015,"train",7760.0,"2021-11-20 00:09:56.671691","","","","","","",""
7.0,0.05817551165819168,0.0009886326195323026,"train",7780.0,"2021-11-20 00:10:05.245460","","","","","","",""
7.0,0.04539167881011963,0.0009923720391365428,"train",7800.0,"2021-11-20 00:10:13.932914","","","","","","",""
7.0,0.050080351531505585,0.000996112183316893,"train",7820.0,"2021-11-20 00:10:23.106409","","","","","","",""
7.0,0.060712046921253204,0.0009998529951736029,"train",7840.0,"2021-11-20 00:10:31.782430","","","","","","",""
7.0,0.06840002536773682,0.0010035944177967638,"train",7860.0,"2021-11-20 00:10:40.442473","","","","","","",""
7.0,0.05374182388186455,0.0010073363942671744,"train",7880.0,"2021-11-20 00:10:49.142676","","","","","","",""
7.0,0.09487361460924149,0.0010110788676572094,"train",7900.0,"2021-11-20 00:10:57.767989","","","","","","",""
7.0,0.039145708084106445,0.0010148217810316822,"train",7920.0,"2021-11-20 00:11:07.006093","","","","","","",""
7.0,0.04937870055437088,0.0010185650774487127,"train",7940.0,"2021-11-20 00:11:15.675268","","","","","","",""
7.0,0.07270174473524094,0.0010223086999605951,"train",7960.0,"2021-11-20 00:11:24.263728","","","","","","",""
7.0,0.05737853795289993,0.0010260525916146609,"train",7980.0,"2021-11-20 00:11:32.961334","","","","","","",""
7.0,0.05686416104435921,0.0010297966954541469,"train",8000.0,"2021-11-20 00:11:41.766157","","","","","","",""
7.0,0.06220152974128723,0.001033540954519064,"train",8020.0,"2021-11-20 00:11:50.978969","","","","","","",""
7.0,0.04047878086566925,0.0010372853118470592,"train",8040.0,"2021-11-20 00:11:59.509309","","","","","","",""
7.0,0.04647275432944298,0.0010410297104742857,"train",8060.0,"2021-11-20 00:12:08.078483","","","","","","",""
7.0,0.07679026573896408,0.0010447740934362692,"train",8080.0,"2021-11-20 00:12:16.644086","","","","","","",""
7.0,0.04057488963007927,0.0010485184037687715,"train",8100.0,"2021-11-20 00:12:25.231822","","","","","","",""
7.0,0.05522603169083595,0.0010522625845086615,"train",8120.0,"2021-11-20 00:12:34.353888","","","","","","",""
7.0,0.06417318433523178,0.0010560065786947796,"train",8140.0,"2021-11-20 00:12:42.884421","","","","","","",""
7.0,0.052875272929668427,0.0010597503293688013,"train",8160.0,"2021-11-20 00:12:51.404567","","","","","","",""
7.0,0.050962772220373154,0.001063493779576111,"train",8180.0,"2021-11-20 00:12:59.904947","","","","","","",""
7.0,0.06387865543365479,0.0010672368723666614,"train",8200.0,"2021-11-20 00:13:08.406194","","","","","","",""
7.0,0.04509704187512398,0.0010709795507958426,"train",8220.0,"2021-11-20 00:13:17.538297","","","","","","",""
7.0,0.05309080332517624,0.0010747217579253504,"train",8240.0,"2021-11-20 00:13:26.135187","","","","","","",""
7.0,0.050690509378910065,0.0010784634368240487,"train",8260.0,"2021-11-20 00:13:34.908707","","","","","","",""
7.0,0.06864768266677856,0.0010822045305688382,"train",8280.0,"2021-11-20 00:13:43.896921","","","","","","",""
7.0,0.06735910475254059,0.0010859449822455227,"train",8300.0,"2021-11-20 00:13:52.651848","","","","","","",""
7.0,0.05304409936070442,0.001089684734949672,"train",8320.0,"2021-11-20 00:14:01.803220","","","","","","",""
7.0,0.046851858496665955,0.00109342373178749,"train",8340.0,"2021-11-20 00:14:10.333488","","","","","","",""
7.0,0.06573212891817093,0.0010971619158766821,"train",8360.0,"2021-11-20 00:14:19.054466","","","","","","",""
7.0,0.04069294407963753,0.0011008992303473152,"train",8380.0,"2021-11-20 00:14:27.663964","","","","","","",""
7.0,0.05666225031018257,0.001104635618342687,"train",8400.0,"2021-11-20 00:14:36.242252","","","","","","",""
7.0,0.03502967581152916,0.001108371023020191,"train",8420.0,"2021-11-20 00:14:45.279123","","","","","","",""
7.0,0.04611276090145111,0.0011121053875521787,"train",8440.0,"2021-11-20 00:14:53.865650","","","","","","",""
7.0,0.05183832347393036,0.0011158386551268257,"train",8460.0,"2021-11-20 00:15:02.590230","","","","","","",""
7.0,0.07619309425354004,0.0011195707689489972,"train",8480.0,"2021-11-20 00:15:11.142631","","","","","","",""
7.0,0.05570743978023529,0.0011233016722411097,"train",8500.0,"2021-11-20 00:15:19.700703","","","","","","",""
7.0,0.05193635821342468,0.0011270313082439951,"train",8520.0,"2021-11-20 00:15:28.801004","","","","","","",""
7.0,0.0514957457780838,0.001130759620217767,"train",8540.0,"2021-11-20 00:15:37.471187","","","","","","",""
7.0,0.05740087106823921,0.0011344865514426794,"train",8560.0,"2021-11-20 00:15:45.972007","","","","","","",""
7.0,0.0774061530828476,0.0011382120452199938,"train",8580.0,"2021-11-20 00:15:54.485827","","","","","","",""
7.0,"","","train",8592.0,"2021-11-20 00:20:30.564207",0.6012806519682747,0.6193169182961539,0.9559101648316807,0.6344026463878399,0.5025385392789681,0.5234387847770284,0.3447665669470444
7.0,"","","val",8592.0,"2021-11-20 00:21:44.824527",0.5816421199118637,0.5792787542573496,0.947053069171804,0.6063734124190874,0.47922532390820916,0.4942031305476622,0.32262984798939975
8.0,0.0372251458466053,0.001141936044872839,"train",8600.0,"2021-11-20 00:21:52.715186","","","","","","",""
8.0,0.06561601161956787,0.0011456584937470744,"train",8620.0,"2021-11-20 00:22:01.925082","","","","","","",""
8.0,0.053763750940561295,0.0011493793352121522,"train",8640.0,"2021-11-20 00:22:10.496943","","","","","","",""
8.0,0.04671016335487366,0.0011530985126619784,"train",8660.0,"2021-11-20 00:22:19.016088","","","","","","",""
8.0,0.055741339921951294,0.001156815969515773,"train",8680.0,"2021-11-20 00:22:27.523022","","","","","","",""
8.0,0.05032842606306076,0.001160531649218934,"train",8700.0,"2021-11-20 00:22:36.104627","","","","","","",""
8.0,0.042001962661743164,0.001164245495243894,"train",8720.0,"2021-11-20 00:22:45.224516","","","","","","",""
8.0,0.06070675700902939,0.0011679574510909817,"train",8740.0,"2021-11-20 00:22:53.814457","","","","","","",""
8.0,0.07378318160772324,0.0011716674602892828,"train",8760.0,"2021-11-20 00:23:02.480604","","","","","","",""
8.0,0.04729337990283966,0.0011753754663974968,"train",8780.0,"2021-11-20 00:23:11.157437","","","","","","",""
8.0,0.05301854386925697,0.0011790814130047968,"train",8800.0,"2021-11-20 00:23:19.685389","","","","","","",""
8.0,0.07166247814893723,0.001182785243731688,"train",8820.0,"2021-11-20 00:23:28.298814","","","","","","",""
8.0,0.07424993813037872,0.0011864869022308656,"train",8840.0,"2021-11-20 00:23:37.355803","","","","","","",""
8.0,0.057293232530355453,0.0011901863321880693,"train",8860.0,"2021-11-20 00:23:45.949946","","","","","","",""
8.0,0.06875865906476974,0.001193883477322945,"train",8880.0,"2021-11-20 00:23:54.539017","","","","","","",""
8.0,0.04433244466781616,0.0011975782813898961,"train",8900.0,"2021-11-20 00:24:03.183345","","","","","","",""
8.0,0.058802470564842224,0.0012012706881789417,"train",8920.0,"2021-11-20 00:24:11.780119","","","","","","",""
8.0,0.053646720945835114,0.001204960641516572,"train",8940.0,"2021-11-20 00:24:20.804884","","","","","","",""
8.0,0.056026071310043335,0.0012086480852666014,"train",8960.0,"2021-11-20 00:24:29.308650","","","","","","",""
8.0,0.05035705491900444,0.0012123329633310235,"train",8980.0,"2021-11-20 00:24:37.868630","","","","","","",""
8.0,0.04056211933493614,0.0012160152196508643,"train",9000.0,"2021-11-20 00:24:46.559080","","","","","","",""
8.0,0.040017902851104736,0.0012196947982070355,"train",9020.0,"2021-11-20 00:24:55.195032","","","","","","",""
8.0,0.022728601470589638,0.0012233716430211856,"train",9040.0,"2021-11-20 00:25:04.483831","","","","","","",""
8.0,0.041594188660383224,0.001227045698156553,"train",9060.0,"2021-11-20 00:25:13.334559","","","","","","",""
8.0,0.05702149122953415,0.0012307169077188148,"train",9080.0,"2021-11-20 00:25:22.028934","","","","","","",""
8.0,0.06372249126434326,0.0012343852158569401,"train",9100.0,"2021-11-20 00:25:30.880902","","","","","","",""
8.0,0.05338860675692558,0.0012380505667640377,"train",9120.0,"2021-11-20 00:25:39.666826","","","","","","",""
8.0,0.04873514175415039,0.0012417129046782046,"train",9140.0,"2021-11-20 00:25:48.763499","","","","","","",""
8.0,0.052594833076000214,0.0012453721738833758,"train",9160.0,"2021-11-20 00:25:57.217383","","","","","","",""
8.0,0.06518324464559555,0.001249028318710172,"train",9180.0,"2021-11-20 00:26:05.930984","","","","","","",""
8.0,0.05571674183011055,0.0012526812835367447,"train",9200.0,"2021-11-20 00:26:14.382888","","","","","","",""
8.0,0.07060382515192032,0.0012563310127896242,"train",9220.0,"2021-11-20 00:26:22.835580","","","","","","",""
8.0,0.06030913442373276,0.0012599774509445645,"train",9240.0,"2021-11-20 00:26:31.868426","","","","","","",""
8.0,0.05871564894914627,0.0012636205425273874,"train",9260.0,"2021-11-20 00:26:40.401017","","","","","","",""
8.0,0.055677589029073715,0.0012672602321148268,"train",9280.0,"2021-11-20 00:26:48.914661","","","","","","",""
8.0,0.07632344961166382,0.0012708964643353732,"train",9300.0,"2021-11-20 00:26:57.439514","","","","","","",""
8.0,0.06594903767108917,0.001274529183870114,"train",9320.0,"2021-11-20 00:27:05.970438","","","","","","",""
8.0,0.04480081796646118,0.0012781583354535748,"train",9340.0,"2021-11-20 00:27:15.145685","","","","","","",""
8.0,0.05628267675638199,0.0012817838638745646,"train",9360.0,"2021-11-20 00:27:23.752535","","","","","","",""
8.0,0.061934057623147964,0.001285405713977009,"train",9380.0,"2021-11-20 00:27:32.309045","","","","","","",""
8.0,0.042715415358543396,0.0012890238306607947,"train",9400.0,"2021-11-20 00:27:40.833052","","","","","","",""
8.0,0.05362948402762413,0.001292638158882606,"train",9420.0,"2021-11-20 00:27:49.457464","","","","","","",""
8.0,0.05290244519710541,0.0012962486436567603,"train",9440.0,"2021-11-20 00:27:58.550703","","","","","","",""
8.0,0.04631417617201805,0.0012998552300560484,"train",9460.0,"2021-11-20 00:28:07.106651","","","","","","",""
8.0,0.049871575087308884,0.0013034578632125668,"train",9480.0,"2021-11-20 00:28:15.725097","","","","","","",""
8.0,0.053961049765348434,0.0013070564883185534,"train",9500.0,"2021-11-20 00:28:24.509433","","","","","","",""
8.0,0.04646044969558716,0.001310651050627223,"train",9520.0,"2021-11-20 00:28:33.400767","","","","","","",""
8.0,0.06878004968166351,0.001314241495453598,"train",9540.0,"2021-11-20 00:28:42.255612","","","","","","",""
8.0,0.06025445833802223,0.00131782776817534,"train",9560.0,"2021-11-20 00:28:51.478843","","","","","","",""
8.0,0.05628884583711624,0.0013214098142335837,"train",9580.0,"2021-11-20 00:29:00.070253","","","","","","",""
8.0,0.07051682472229004,0.001324987579133764,"train",9600.0,"2021-11-20 00:29:08.665954","","","","","","",""
8.0,0.03267280384898186,0.0013285610084464463,"train",9620.0,"2021-11-20 00:29:17.372018","","","","","","",""
8.0,0.04551435634493828,0.001332130047808155,"train",9640.0,"2021-11-20 00:29:26.244440","","","","","","",""
8.0,0.05828478932380676,0.001335694642922199,"train",9660.0,"2021-11-20 00:29:35.413133","","","","","","",""
8.0,"","","train",9666.0,"2021-11-20 00:34:09.865718",0.5989958524339664,0.6376066749180164,0.959142870006597,0.6403977955358308,0.5107948625995633,0.5341244765703744,0.3491357198240061
8.0,"","","val",9666.0,"2021-11-20 00:35:25.172380",0.5814681665313696,0.5918905703676498,0.950032294697692,0.6162744025948461,0.4824280725055617,0.5038942948187504,0.3219673432690125
9.0,0.04514879733324051,0.0013392547395594985,"train",9680.0,"2021-11-20 00:35:35.616679","","","","","","",""
9.0,0.05390305072069168,0.001342810283559412,"train",9700.0,"2021-11-20 00:35:44.200023","","","","","","",""
9.0,0.040848564356565475,0.0013463612208305564,"train",9720.0,"2021-11-20 00:35:52.933789","","","","","","",""
9.0,0.06683166325092316,0.0013499074973516321,"train",9740.0,"2021-11-20 00:36:01.560824","","","","","","",""
9.0,0.04677687585353851,0.0013534490591722464,"train",9760.0,"2021-11-20 00:36:10.819776","","","","","","",""
9.0,0.05444126948714256,0.0013569858524137305,"train",9780.0,"2021-11-20 00:36:19.418865","","","","","","",""
9.0,0.049434103071689606,0.001360517823269962,"train",9800.0,"2021-11-20 00:36:28.158675","","","","","","",""
9.0,0.03980843350291252,0.0013640449180081834,"train",9820.0,"2021-11-20 00:36:36.697981","","","","","","",""
9.0,0.05640459433197975,0.0013675670829698173,"train",9840.0,"2021-11-20 00:36:45.322133","","","","","","",""
9.0,0.06421839445829391,0.0013710842645712853,"train",9860.0,"2021-11-20 00:36:54.466246","","","","","","",""
9.0,0.05923722684383392,0.0013745964093048219,"train",9880.0,"2021-11-20 00:37:03.194565","","","","","","",""
9.0,0.05965418368577957,0.0013781034637392886,"train",9900.0,"2021-11-20 00:37:12.088911","","","","","","",""
9.0,0.04664701968431473,0.0013816053745209864,"train",9920.0,"2021-11-20 00:37:20.773087","","","","","","",""
9.0,0.06867676973342896,0.0013851020883744697,"train",9940.0,"2021-11-20 00:37:29.436532","","","","","","",""
9.0,0.058046575635671616,0.001388593552103353,"train",9960.0,"2021-11-20 00:37:38.518823","","","","","","",""
9.0,0.0582294687628746,0.0013920797125911233,"train",9980.0,"2021-11-20 00:37:47.022417","","","","","","",""
9.0,0.08066435903310776,0.001395560516801947,"train",10000.0,"2021-11-20 00:37:55.631986","","","","","","",""
9.0,0.059812627732753754,0.0013990359117814774,"train",10020.0,"2021-11-20 00:38:04.262458","","","","","","",""
9.0,0.07593692094087601,0.0014025058446576583,"train",10040.0,"2021-11-20 00:38:12.952493","","","","","","",""
9.0,0.06260492652654648,0.0014059702626415317,"train",10060.0,"2021-11-20 00:38:22.186628","","","","","","",""
9.0,0.03612283989787102,0.0014094291130280377,"train",10080.0,"2021-11-20 00:38:30.740119","","","","","","",""
9.0,0.040925659239292145,0.0014128823431968183,"train",10100.0,"2021-11-20 00:38:39.330750","","","","","","",""
9.0,0.0649503618478775,0.001416329900613017,"train",10120.0,"2021-11-20 00:38:47.928215","","","","","","",""
9.0,0.07015449553728104,0.0014197717328280782,"train",10140.0,"2021-11-20 00:38:56.608091","","","","","","",""
9.0,0.04708511754870415,0.0014232077874805457,"train",10160.0,"2021-11-20 00:39:05.735467","","","","","","",""
9.0,0.0675954818725586,0.0014266380122968589,"train",10180.0,"2021-11-20 00:39:14.267800","","","","","","",""
9.0,0.039962489157915115,0.0014300623550921468,"train",10200.0,"2021-11-20 00:39:22.825976","","","","","","",""
9.0,0.07484103739261627,0.0014334807637710243,"train",10220.0,"2021-11-20 00:39:31.502319","","","","","","",""
9.0,0.033635079860687256,0.0014368931863283831,"train",10240.0,"2021-11-20 00:39:40.040058","","","","","","",""
9.0,0.051762655377388,0.0014402995708501826,"train",10260.0,"2021-11-20 00:39:48.568153","","","","","","",""
9.0,0.05679237097501755,0.0014436998655142422,"train",10280.0,"2021-11-20 00:39:57.697588","","","","","","",""
9.0,0.03291754797101021,0.0014470940185910258,"train",10300.0,"2021-11-20 00:40:06.233028","","","","","","",""
9.0,0.05192656069993973,0.001450481978444431,"train",10320.0,"2021-11-20 00:40:14.779872","","","","","","",""
9.0,0.04575476422905922,0.0014538636935325763,"train",10340.0,"2021-11-20 00:40:23.356187","","","","","","",""
9.0,0.05629650503396988,0.0014572391124085817,"train",10360.0,"2021-11-20 00:40:31.940621","","","","","","",""
9.0,0.052183933556079865,0.0014606081837213525,"train",10380.0,"2021-11-20 00:40:40.964546","","","","","","",""
9.0,0.063674196600914,0.0014639708562163639,"train",10400.0,"2021-11-20 00:40:49.537273","","","","","","",""
9.0,0.04891546443104744,0.001467327078736435,"train",10420.0,"2021-11-20 00:40:58.194938","","","","","","",""
9.0,0.0738607868552208,0.0014706768002225108,"train",10440.0,"2021-11-20 00:41:07.002543","","","","","","",""
9.0,0.05799078196287155,0.0014740199697144392,"train",10460.0,"2021-11-20 00:41:15.799853","","","","","","",""
9.0,0.04471172019839287,0.0014773565363517442,"train",10480.0,"2021-11-20 00:41:25.129725","","","","","","",""
9.0,0.044829804450273514,0.0014806864493744007,"train",10500.0,"2021-11-20 00:41:33.743371","","","","","","",""
9.0,0.06101163849234581,0.0014840096581236072,"train",10520.0,"2021-11-20 00:41:42.331840","","","","","","",""
9.0,0.058757565915584564,0.001487326112042556,"train",10540.0,"2021-11-20 00:41:50.908391","","","","","","",""
9.0,0.060739483684301376,0.0014906357606772013,"train",10560.0,"2021-11-20 00:41:59.454444","","","","","","",""
9.0,0.05574926361441612,0.0014939385536770291,"train",10580.0,"2021-11-20 00:42:08.563092","","","","","","",""
9.0,0.051076799631118774,0.0014972344407958218,"train",10600.0,"2021-11-20 00:42:17.074800","","","","","","",""
9.0,0.05362611636519432,0.0015005233718924213,"train",10620.0,"2021-11-20 00:42:25.575222","","","","","","",""
9.0,0.048861972987651825,0.0015038052969314946,"train",10640.0,"2021-11-20 00:42:34.064972","","","","","","",""
9.0,0.027441300451755524,0.0015070801659842939,"train",10660.0,"2021-11-20 00:42:42.577455","","","","","","",""
9.0,0.04565154016017914,0.001510347929229414,"train",10680.0,"2021-11-20 00:42:51.533973","","","","","","",""
9.0,0.03929905220866203,0.0015136085369535537,"train",10700.0,"2021-11-20 00:43:00.014316","","","","","","",""
9.0,0.069110207259655,0.0015168619395522708,"train",10720.0,"2021-11-20 00:43:08.539576","","","","","","",""
9.0,0.07473313063383102,0.0015201080875307349,"train",10740.0,"2021-11-20 00:43:17.130395","","","","","","",""
9.0,"","","train",10740.0,"2021-11-20 00:47:49.824991",0.6022993523975843,0.6340367575513994,0.9589652239490379,0.6404159616151036,0.5173718668063241,0.5389574407930917,0.3551980429987148
9.0,"","","val",10740.0,"2021-11-20 00:49:04.103269",0.5839614983184507,0.5924297786498866,0.9489349346316599,0.6156609708660962,0.48868551975386804,0.5071261639386707,0.32705822360498044
10.0,0.045176710933446884,0.0015233469315044834,"train",10760.0,"2021-11-20 00:49:17.141981","","","","","","",""
10.0,0.04840317368507385,0.0015265784222001709,"train",10780.0,"2021-11-20 00:49:26.341118","","","","","","",""
10.0,0.04392504692077637,0.0015298025104563185,"train",10800.0,"2021-11-20 00:49:35.073675","","","","","","",""
10.0,0.0656844973564148,0.001533019147224064,"train",10820.0,"2021-11-20 00:49:43.884811","","","","","","",""
10.0,0.029364444315433502,0.0015362282835679054,"train",10840.0,"2021-11-20 00:49:52.661783","","","","","","",""
10.0,0.06154389679431915,0.0015394298706664469,"train",10860.0,"2021-11-20 00:50:01.322385","","","","","","",""
10.0,0.06274513900279999,0.001542623859813141,"train",10880.0,"2021-11-20 00:50:10.616322","","","","","","",""
10.0,0.057885438203811646,0.00154581020241703,"train",10900.0,"2021-11-20 00:50:19.282025","","","","","","",""
10.0,0.0627577155828476,0.0015489888500034858,"train",10920.0,"2021-11-20 00:50:27.927841","","","","","","",""
10.0,0.06957720965147018,0.0015521597542149444,"train",10940.0,"2021-11-20 00:50:36.541641","","","","","","",""
10.0,0.06039302423596382,0.0015553228668116455,"train",10960.0,"2021-11-20 00:50:45.131068","","","","","","",""
10.0,0.041277654469013214,0.0015584781396723642,"train",10980.0,"2021-11-20 00:50:53.844607","","","","","","",""
10.0,0.06494438648223877,0.0015616255247951432,"train",11000.0,"2021-11-20 00:51:03.053727","","","","","","",""
10.0,0.03956853598356247,0.0015647649742980233,"train",11020.0,"2021-11-20 00:51:11.617981","","","","","","",""
10.0,0.04514312744140625,0.0015678964404197727,"train",11040.0,"2021-11-20 00:51:20.203143","","","","","","",""
10.0,0.06109299510717392,0.0015710198755206112,"train",11060.0,"2021-11-20 00:51:28.787719","","","","","","",""
10.0,0.05826813727617264,0.0015741352320829379,"train",11080.0,"2021-11-20 00:51:37.496744","","","","","","",""
10.0,0.053251754492521286,0.0015772424627120527,"train",11100.0,"2021-11-20 00:51:46.792131","","","","","","",""
10.0,0.06981153786182404,0.0015803415201368761,"train",11120.0,"2021-11-20 00:51:55.443368","","","","","","",""
10.0,0.041301947087049484,0.001583432357210671,"train",11140.0,"2021-11-20 00:52:04.221215","","","","","","",""
10.0,0.06882400810718536,0.001586514926911758,"train",11160.0,"2021-11-20 00:52:12.939044","","","","","","",""
10.0,0.0841297134757042,0.0015895891823442313,"train",11180.0,"2021-11-20 00:52:21.772349","","","","","","",""
10.0,0.053039148449897766,0.0015926550767386717,"train",11200.0,"2021-11-20 00:52:30.875957","","","","","","",""
10.0,0.04317685589194298,0.0015957125634528599,"train",11220.0,"2021-11-20 00:52:39.651870","","","","","","",""
10.0,0.04166930541396141,0.0015987615959724836,"train",11240.0,"2021-11-20 00:52:48.315585","","","","","","",""
10.0,0.054184745997190475,0.0016018021279118457,"train",11260.0,"2021-11-20 00:52:57.098923","","","","","","",""
10.0,0.07028289139270782,0.0016048341130145728,"train",11280.0,"2021-11-20 00:53:05.933214","","","","","","",""
10.0,0.04766331613063812,0.0016078575051543145,"train",11300.0,"2021-11-20 00:53:15.089688","","","","","","",""
10.0,0.04276995733380318,0.0016108722583354478,"train",11320.0,"2021-11-20 00:53:23.814327","","","","","","",""
10.0,0.04864044487476349,0.0016138783266937777,"train",11340.0,"2021-11-20 00:53:32.456126","","","","","","",""
10.0,0.038901668041944504,0.0016168756644972322,"train",11360.0,"2021-11-20 00:53:40.998939","","","","","","",""
10.0,0.06057509779930115,0.0016198642261465587,"train",11380.0,"2021-11-20 00:53:49.568374","","","","","","",""
10.0,0.05700807273387909,0.0016228439661760208,"train",11400.0,"2021-11-20 00:53:58.617474","","","","","","",""
10.0,0.051124997437000275,0.001625814839254086,"train",11420.0,"2021-11-20 00:54:07.198736","","","","","","",""
10.0,0.040263984352350235,0.0016287768001841164,"train",11440.0,"2021-11-20 00:54:15.867162","","","","","","",""
10.0,0.056684739887714386,0.001631729803905059,"train",11460.0,"2021-11-20 00:54:24.634886","","","","","","",""
10.0,0.035234443843364716,0.0016346738054921273,"train",11480.0,"2021-11-20 00:54:33.196569","","","","","","",""
10.0,0.04785993695259094,0.001637608760157486,"train",11500.0,"2021-11-20 00:54:41.832244","","","","","","",""
10.0,0.05702504143118858,0.0016405346232509356,"train",11520.0,"2021-11-20 00:54:51.271819","","","","","","",""
10.0,0.05998547002673149,0.0016434513502605861,"train",11540.0,"2021-11-20 00:54:59.998777","","","","","","",""
10.0,0.06815385073423386,0.0016463588968135383,"train",11560.0,"2021-11-20 00:55:08.609555","","","","","","",""
10.0,0.06238940730690956,0.0016492572186765577,"train",11580.0,"2021-11-20 00:55:17.255277","","","","","","",""
10.0,0.05553143844008446,0.001652146271756747,"train",11600.0,"2021-11-20 00:55:25.929191","","","","","","",""
10.0,0.04098941758275032,0.0016550260121022172,"train",11620.0,"2021-11-20 00:55:35.122915","","","","","","",""
10.0,0.0813606008887291,0.0016578963959027562,"train",11640.0,"2021-11-20 00:55:43.804466","","","","","","",""
10.0,0.08071894943714142,0.001660757379490496,"train",11660.0,"2021-11-20 00:55:52.601875","","","","","","",""
10.0,0.05465090647339821,0.0016636089193405761,"train",11680.0,"2021-11-20 00:56:01.282570","","","","","","",""
10.0,0.049350034445524216,0.0016664509720718049,"train",11700.0,"2021-11-20 00:56:09.845559","","","","","","",""
10.0,0.07673057168722153,0.0016692834944473224,"train",11720.0,"2021-11-20 00:56:19.012982","","","","","","",""
10.0,0.07398997992277145,0.0016721064433752554,"train",11740.0,"2021-11-20 00:56:27.570547","","","","","","",""
10.0,0.04695790633559227,0.0016749197759093734,"train",11760.0,"2021-11-20 00:56:36.178424","","","","","","",""
10.0,0.08655232936143875,0.0016777234492497436,"train",11780.0,"2021-11-20 00:56:44.855590","","","","","","",""
10.0,0.06450147926807404,0.0016805174207433808,"train",11800.0,"2021-11-20 00:56:53.535166","","","","","","",""
10.0,"","","train",11814.0,"2021-11-20 01:01:31.772889",0.6207087244415339,0.6427721588031685,0.9597278493235708,0.6420191527839219,0.522360467611038,0.5481640903716493,0.360279184064955
10.0,"","","val",11814.0,"2021-11-20 01:02:45.448274",0.5995013336425837,0.5949747717725221,0.9497819932994814,0.6143412791348692,0.4922336804682982,0.5164719484955822,0.3310924877013299
11.0,0.03847240284085274,0.0016833016478848956,"train",11820.0,"2021-11-20 01:02:52.639348","","","","","","",""
11.0,0.05292300134897232,0.0016860760883171426,"train",11840.0,"2021-11-20 01:03:01.384454","","","","","","",""
11.0,0.05269744619727135,0.001688840699831864,"train",11860.0,"2021-11-20 01:03:10.437328","","","","","","",""
11.0,0.05807360261678696,0.0016915954403703313,"train",11880.0,"2021-11-20 01:03:19.416548","","","","","","",""
11.0,0.04152670130133629,0.0016943402680239862,"train",11900.0,"2021-11-20 01:03:28.087304","","","","","","",""
11.0,0.03552595525979996,0.0016970751410350774,"train",11920.0,"2021-11-20 01:03:37.506956","","","","","","",""
11.0,0.05949489027261734,0.001699800017797296,"train",11940.0,"2021-11-20 01:03:46.555818","","","","","","",""
11.0,0.034866828471422195,0.0017025148568564086,"train",11960.0,"2021-11-20 01:03:55.601526","","","","","","",""
11.0,0.0737648755311966,0.001705219616910888,"train",11980.0,"2021-11-20 01:04:04.320005","","","","","","",""
11.0,0.06316730380058289,0.001707914256812541,"train",12000.0,"2021-11-20 01:04:13.171427","","","","","","",""
11.0,0.038841068744659424,0.0017105987355671352,"train",12020.0,"2021-11-20 01:04:22.789371","","","","","","",""
11.0,0.06625091284513474,0.0017132730123350227,"train",12040.0,"2021-11-20 01:04:31.824640","","","","","","",""
11.0,0.030980106443166733,0.00171593704643176,"train",12060.0,"2021-11-20 01:04:40.524339","","","","","","",""
11.0,0.05443142354488373,0.0017185907973287285,"train",12080.0,"2021-11-20 01:04:49.289428","","","","","","",""
11.0,0.05460244044661522,0.0017212342246537506,"train",12100.0,"2021-11-20 01:04:58.030242","","","","","","",""
11.0,0.035220157355070114,0.0017238672881917032,"train",12120.0,"2021-11-20 01:05:06.692817","","","","","","",""
11.0,0.054749105125665665,0.001726489947885131,"train",12140.0,"2021-11-20 01:05:16.073643","","","","","","",""
11.0,0.04950595647096634,0.0017291021638348543,"train",12160.0,"2021-11-20 01:05:24.851472","","","","","","",""
11.0,0.045417219400405884,0.0017317038963005765,"train",12180.0,"2021-11-20 01:05:33.632065","","","","","","",""
11.0,0.0642910972237587,0.00173429510570149,"train",12200.0,"2021-11-20 01:05:42.488793","","","","","","",""
11.0,0.06796275079250336,0.0017368757526168759,"train",12220.0,"2021-11-20 01:05:51.535228","","","","","","",""
11.0,0.05435322970151901,0.0017394457977867057,"train",12240.0,"2021-11-20 01:06:00.821876","","","","","","",""
11.0,0.044720862060785294,0.0017420052021122378,"train",12260.0,"2021-11-20 01:06:09.825067","","","","","","",""
11.0,0.06187685579061508,0.0017445539266566128,"train",12280.0,"2021-11-20 01:06:18.455459","","","","","","",""
11.0,0.0509236641228199,0.001747091932645445,"train",12300.0,"2021-11-20 01:06:27.118115","","","","","","",""
11.0,0.0693943202495575,0.0017496191814674125,"train",12320.0,"2021-11-20 01:06:35.771788","","","","","","",""
11.0,0.0574423223733902,0.001752135634674846,"train",12340.0,"2021-11-20 01:06:45.045832","","","","","","",""
11.0,0.054259803146123886,0.0017546412539843118,"train",12360.0,"2021-11-20 01:06:53.881594","","","","","","",""
11.0,0.07857605069875717,0.001757136001277194,"train",12380.0,"2021-11-20 01:07:02.847541","","","","","","",""
11.0,0.0696757435798645,0.001759619838600278,"train",12400.0,"2021-11-20 01:07:11.756683","","","","","","",""
11.0,0.04277101159095764,0.0017620927281663229,"train",12420.0,"2021-11-20 01:07:20.556217","","","","","","",""
11.0,0.07074608653783798,0.0017645546323546398,"train",12440.0,"2021-11-20 01:07:29.981440","","","","","","",""
11.0,0.07004155963659286,0.0017670055137116636,"train",12460.0,"2021-11-20 01:07:38.710343","","","","","","",""
11.0,0.05258562043309212,0.0017694453349515209,"train",12480.0,"2021-11-20 01:07:47.405627","","","","","","",""
11.0,0.06727252155542374,0.0017718740589566,"train",12500.0,"2021-11-20 01:07:56.079107","","","","","","",""
11.0,0.05847581848502159,0.0017742916487781134,"train",12520.0,"2021-11-20 01:08:04.705641","","","","","","",""
11.0,0.05320107191801071,0.0017766980676366608,"train",12540.0,"2021-11-20 01:08:13.985449","","","","","","",""
11.0,0.0841774269938469,0.001779093278922789,"train",12560.0,"2021-11-20 01:08:22.692270","","","","","","",""
11.0,0.0850643441081047,0.001781477246197548,"train",12580.0,"2021-11-20 01:08:31.492107","","","","","","",""
11.0,0.03858664259314537,0.0017838499331930462,"train",12600.0,"2021-11-20 01:08:40.216389","","","","","","",""
11.0,0.05386573448777199,0.001786211303813001,"train",12620.0,"2021-11-20 01:08:48.942269","","","","","","",""
11.0,0.04358622059226036,0.0017885613221332894,"train",12640.0,"2021-11-20 01:08:58.191664","","","","","","",""
11.0,0.05021733418107033,0.0017908999524024931,"train",12660.0,"2021-11-20 01:09:06.842431","","","","","","",""
11.0,0.04853496700525284,0.0017932271590424438,"train",12680.0,"2021-11-20 01:09:15.490051","","","","","","",""
11.0,0.068038210272789,0.0017955429066487635,"train",12700.0,"2021-11-20 01:09:24.215431","","","","","","",""
11.0,0.05716374143958092,0.0017978471599914025,"train",12720.0,"2021-11-20 01:09:33.013066","","","","","","",""
11.0,0.04093408212065697,0.0018001398840151778,"train",12740.0,"2021-11-20 01:09:41.848160","","","","","","",""
11.0,0.06871341168880463,0.0018024210438403031,"train",12760.0,"2021-11-20 01:09:51.060003","","","","","","",""
11.0,0.03173225373029709,0.0018046906047629228,"train",12780.0,"2021-11-20 01:09:59.706597","","","","","","",""
11.0,0.06848135590553284,0.0018069485322556372,"train",12800.0,"2021-11-20 01:10:08.392357","","","","","","",""
11.0,0.03719131276011467,0.001809194791968029,"train",12820.0,"2021-11-20 01:10:17.096605","","","","","","",""
11.0,0.044262439012527466,0.0018114293497271863,"train",12840.0,"2021-11-20 01:10:25.942101","","","","","","",""
11.0,0.04933195561170578,0.0018136521715382218,"train",12860.0,"2021-11-20 01:10:35.380999","","","","","","",""
11.0,0.042789146304130554,0.0018158632235847892,"train",12880.0,"2021-11-20 01:10:44.466122","","","","","","",""
11.0,"","","train",12888.0,"2021-11-20 01:15:19.960169",0.6194571781998108,0.6494175182809528,0.9636106159688703,0.6502798409746657,0.5460185629205626,0.5674635687962069,0.3750260183452595
11.0,"","","val",12888.0,"2021-11-20 01:16:34.119235",0.5977038153774789,0.599551016624541,0.9541544503646596,0.6238582509358847,0.5145719043317131,0.533411102091513,0.34355433513259925
12.0,0.046669814735651016,0.0018180624722295999,"train",12900.0,"2021-11-20 01:16:43.644626","","","","","","",""
12.0,0.06571507453918457,0.001820249884014933,"train",12920.0,"2021-11-20 01:16:52.328593","","","","","","",""
12.0,0.06415361166000366,0.001822425425663144,"train",12940.0,"2021-11-20 01:17:00.990349","","","","","","",""
12.0,0.08210045099258423,0.0018245890640771725,"train",12960.0,"2021-11-20 01:17:10.310451","","","","","","",""
12.0,0.047291263937950134,0.0018267407663410452,"train",12980.0,"2021-11-20 01:17:18.990370","","","","","","",""
12.0,0.054266996681690216,0.0018288804997203755,"train",13000.0,"2021-11-20 01:17:27.682710","","","","","","",""
12.0,0.04198785126209259,0.0018310082316628634,"train",13020.0,"2021-11-20 01:17:36.470269","","","","","","",""
12.0,0.05431528389453888,0.0018331239297987893,"train",13040.0,"2021-11-20 01:17:45.057251","","","","","","",""
12.0,0.05813577398657799,0.0018352275619415066,"train",13060.0,"2021-11-20 01:17:54.059385","","","","","","",""
12.0,0.05429821088910103,0.0018373190960879326,"train",13080.0,"2021-11-20 01:18:02.664166","","","","","","",""
12.0,0.04925655946135521,0.0018393985004190336,"train",13100.0,"2021-11-20 01:18:11.250303","","","","","","",""
12.0,0.04175540432333946,0.00184146574330031,"train",13120.0,"2021-11-20 01:18:19.702582","","","","","","",""
12.0,0.041080228984355927,0.001843520793282278,"train",13140.0,"2021-11-20 01:18:28.178413","","","","","","",""
12.0,0.04631857946515083,0.0018455636191009464,"train",13160.0,"2021-11-20 01:18:37.381320","","","","","","",""
12.0,0.059793345630168915,0.001847594189678294,"train",13180.0,"2021-11-20 01:18:46.013862","","","","","","",""
12.0,0.06128287687897682,0.0018496124741227415,"train",13200.0,"2021-11-20 01:18:54.532316","","","","","","",""
12.0,0.043367162346839905,0.001851618441729622,"train",13220.0,"2021-11-20 01:19:03.048680","","","","","","",""
12.0,0.06540942192077637,0.0018536120619816467,"train",13240.0,"2021-11-20 01:19:11.688111","","","","","","",""
12.0,0.05506749078631401,0.0018555933045493712,"train",13260.0,"2021-11-20 01:19:20.762760","","","","","","",""
12.0,0.044967249035835266,0.0018575621392916554,"train",13280.0,"2021-11-20 01:19:29.441632","","","","","","",""
12.0,0.045542873442173004,0.0018595185362561225,"train",13300.0,"2021-11-20 01:19:38.007023","","","","","","",""
12.0,0.04542267322540283,0.0018614624656796155,"train",13320.0,"2021-11-20 01:19:46.641846","","","","","","",""
12.0,0.04329991340637207,0.0018633938979886484,"train",13340.0,"2021-11-20 01:19:55.234376","","","","","","",""
12.0,0.04265628010034561,0.0018653128037998568,"train",13360.0,"2021-11-20 01:20:03.889750","","","","","","",""
12.0,0.04130313917994499,0.0018672191539204459,"train",13380.0,"2021-11-20 01:20:12.916825","","","","","","",""
12.0,0.054250095039606094,0.0018691129193486335,"train",13400.0,"2021-11-20 01:20:21.499828","","","","","","",""
12.0,0.04783836752176285,0.0018709940712740908,"train",13420.0,"2021-11-20 01:20:30.107791","","","","","","",""
12.0,0.04635591059923172,0.0018728625810783823,"train",13440.0,"2021-11-20 01:20:38.585317","","","","","","",""
12.0,0.03346812725067139,0.0018747184203353996,"train",13460.0,"2021-11-20 01:20:47.215898","","","","","","",""
12.0,0.05053900182247162,0.0018765615608117947,"train",13480.0,"2021-11-20 01:20:56.383221","","","","","","",""
12.0,0.04179368540644646,0.0018783919744674096,"train",13500.0,"2021-11-20 01:21:05.066067","","","","","","",""
12.0,0.05385733023285866,0.0018802096334557027,"train",13520.0,"2021-11-20 01:21:13.706070","","","","","","",""
12.0,0.06806143373250961,0.0018820145101241712,"train",13540.0,"2021-11-20 01:21:22.238795","","","","","","",""
12.0,0.055214278399944305,0.0018838065770147745,"train",13560.0,"2021-11-20 01:21:30.788239","","","","","","",""
12.0,0.057152990251779556,0.0018855858068643496,"train",13580.0,"2021-11-20 01:21:39.865767","","","","","","",""
12.0,0.054065972566604614,0.001887352172605026,"train",13600.0,"2021-11-20 01:21:48.479119","","","","","","",""
12.0,0.04436398670077324,0.0018891056473646398,"train",13620.0,"2021-11-20 01:21:57.172739","","","","","","",""
12.0,0.04581752419471741,0.0018908462044671395,"train",13640.0,"2021-11-20 01:22:05.777739","","","","","","",""
12.0,0.03889527916908264,0.001892573817432993,"train",13660.0,"2021-11-20 01:22:14.338582","","","","","","",""
12.0,0.0802248939871788,0.0018942884599795914,"train",13680.0,"2021-11-20 01:22:23.425678","","","","","","",""
12.0,0.09005545824766159,0.001895990106021648,"train",13700.0,"2021-11-20 01:22:31.998907","","","","","","",""
12.0,0.0681038498878479,0.0018976787296715943,"train",13720.0,"2021-11-20 01:22:40.462940","","","","","","",""
12.0,0.04095160588622093,0.0018993543052399757,"train",13740.0,"2021-11-20 01:22:49.090480","","","","","","",""
12.0,0.04942406341433525,0.0019010168072358413,"train",13760.0,"2021-11-20 01:22:57.723706","","","","","","",""
12.0,0.051238447427749634,0.0019026662103671305,"train",13780.0,"2021-11-20 01:23:06.863715","","","","","","",""
12.0,0.047720540314912796,0.0019043024895410605,"train",13800.0,"2021-11-20 01:23:15.489492","","","","","","",""
12.0,0.04310142248868942,0.001905925619864506,"train",13820.0,"2021-11-20 01:23:24.013234","","","","","","",""
12.0,0.05681327357888222,0.001907535576644378,"train",13840.0,"2021-11-20 01:23:32.657704","","","","","","",""
12.0,0.04710278660058975,0.0019091323353880008,"train",13860.0,"2021-11-20 01:23:41.236965","","","","","","",""
12.0,0.08909999579191208,0.0019107158718034828,"train",13880.0,"2021-11-20 01:23:49.697545","","","","","","",""
12.0,0.04077129811048508,0.001912286161800088,"train",13900.0,"2021-11-20 01:23:58.731260","","","","","","",""
12.0,0.08615419268608093,0.0019138431814886008,"train",13920.0,"2021-11-20 01:24:07.278543","","","","","","",""
12.0,0.07074987888336182,0.0019153869071816896,"train",13940.0,"2021-11-20 01:24:15.841027","","","","","","",""
12.0,0.034975919872522354,0.0019169173153942693,"train",13960.0,"2021-11-20 01:24:24.375010","","","","","","",""
12.0,"","","train",13962.0,"2021-11-20 01:28:56.581728",0.6158917266972277,0.6586237066960865,0.9621903702398077,0.6333834090638276,0.5223921249189216,0.5432840826112756,0.3627142000247502
12.0,"","","val",13962.0,"2021-11-20 01:30:09.625226",0.5939928099269396,0.605138438158134,0.9513076714878341,0.605926516935941,0.49118917022221736,0.5082107284835581,0.3327257587728148
13.0,0.06212952360510826,0.0019184343828438557,"train",13980.0,"2021-11-20 01:30:21.852876","","","","","","",""
13.0,0.04891251400113106,0.0019199380864509208,"train",14000.0,"2021-11-20 01:30:31.315790","","","","","","",""
13.0,0.04973604157567024,0.0019214284033392457,"train",14020.0,"2021-11-20 01:30:39.908545","","","","","","",""
13.0,0.042492177337408066,0.0019229053108362649,"train",14040.0,"2021-11-20 01:30:48.539805","","","","","","",""
13.0,0.06941580772399902,0.0019243687864734145,"train",14060.0,"2021-11-20 01:30:57.271113","","","","","","",""
13.0,0.04009212180972099,0.0019258188079864732,"train",14080.0,"2021-11-20 01:31:05.999266","","","","","","",""
13.0,0.053453244268894196,0.0019272553533158999,"train",14100.0,"2021-11-20 01:31:15.204207","","","","","","",""
13.0,0.06288454681634903,0.0019286784006071697,"train",14120.0,"2021-11-20 01:31:23.903099","","","","","","",""
13.0,0.03602924570441246,0.0019300879282111083,"train",14140.0,"2021-11-20 01:31:32.564265","","","","","","",""
13.0,0.04650961235165596,0.0019314839146842185,"train",14160.0,"2021-11-20 01:31:41.239317","","","","","","",""
13.0,0.041044145822525024,0.0019328663387890076,"train",14180.0,"2021-11-20 01:31:49.856524","","","","","","",""
13.0,0.040833987295627594,0.0019342351794943119,"train",14200.0,"2021-11-20 01:31:59.006202","","","","","","",""
13.0,0.07205192744731903,0.0019355904159756138,"train",14220.0,"2021-11-20 01:32:07.898411","","","","","","",""
13.0,0.06406495720148087,0.0019369320276153613,"train",14240.0,"2021-11-20 01:32:16.669422","","","","","","",""
13.0,0.054237913340330124,0.00193825999400328,"train",14260.0,"2021-11-20 01:32:25.569333","","","","","","",""
13.0,0.07579305768013,0.0019395742949366843,"train",14280.0,"2021-11-20 01:32:34.484051","","","","","","",""
13.0,0.0565662644803524,0.0019408749104207845,"train",14300.0,"2021-11-20 01:32:43.717116","","","","","","",""
13.0,0.05270736292004585,0.0019421618206689913,"train",14320.0,"2021-11-20 01:32:52.410741","","","","","","",""
13.0,0.047520097345113754,0.0019434350061032163,"train",14340.0,"2021-11-20 01:33:01.060481","","","","","","",""
13.0,0.04831229895353317,0.0019446944473541703,"train",14360.0,"2021-11-20 01:33:09.700823","","","","","","",""
13.0,0.03676949813961983,0.0019459401252616573,"train",14380.0,"2021-11-20 01:33:18.314697","","","","","","",""
13.0,0.033121589571237564,0.001947172020874868,"train",14400.0,"2021-11-20 01:33:27.385102","","","","","","",""
13.0,0.046197324991226196,0.0019483901154526647,"train",14420.0,"2021-11-20 01:33:36.020837","","","","","","",""
13.0,0.08048199117183685,0.0019495943904638694,"train",14440.0,"2021-11-20 01:33:44.689538","","","","","","",""
13.0,0.04577447101473808,0.0019507848275875444,"train",14460.0,"2021-11-20 01:33:53.374802","","","","","","",""
13.0,0.04856686666607857,0.0019519614087132712,"train",14480.0,"2021-11-20 01:34:02.190666","","","","","","",""
13.0,0.0762837678194046,0.0019531241159414263,"train",14500.0,"2021-11-20 01:34:11.486346","","","","","","",""
13.0,0.03764481469988823,0.001954272931583453,"train",14520.0,"2021-11-20 01:34:20.035746","","","","","","",""
13.0,0.04814701899886131,0.0019554078381621306,"train",14540.0,"2021-11-20 01:34:28.545444","","","","","","",""
13.0,0.04965721070766449,0.0019565288184118417,"train",14560.0,"2021-11-20 01:34:37.086457","","","","","","",""
13.0,0.0534655787050724,0.0019576358552788314,"train",14580.0,"2021-11-20 01:34:45.606548","","","","","","",""
13.0,0.05545070767402649,0.0019587289319214713,"train",14600.0,"2021-11-20 01:34:54.205838","","","","","","",""
13.0,0.08230222761631012,0.0019598080317105113,"train",14620.0,"2021-11-20 01:35:03.413731","","","","","","",""
13.0,0.032963987439870834,0.001960873138229337,"train",14640.0,"2021-11-20 01:35:12.078343","","","","","","",""
13.0,0.05288315191864967,0.0019619242352742153,"train",14660.0,"2021-11-20 01:35:20.679898","","","","","","",""
13.0,0.04126538336277008,0.001962961306854543,"train",14680.0,"2021-11-20 01:35:29.276100","","","","","","",""
13.0,0.050387777388095856,0.0019639843371930905,"train",14700.0,"2021-11-20 01:35:37.856663","","","","","","",""
13.0,0.0709366574883461,0.001964993310726241,"train",14720.0,"2021-11-20 01:35:47.311624","","","","","","",""
13.0,0.03890740126371384,0.0019659882121042262,"train",14740.0,"2021-11-20 01:35:55.866675","","","","","","",""
13.0,0.04412202909588814,0.001966969026191363,"train",14760.0,"2021-11-20 01:36:04.430671","","","","","","",""
13.0,0.04526068642735481,0.0019679357380662805,"train",14780.0,"2021-11-20 01:36:13.253527","","","","","","",""
13.0,0.05535148084163666,0.001968888333022148,"train",14800.0,"2021-11-20 01:36:22.035232","","","","","","",""
13.0,0.06204860284924507,0.0019698267965669,"train",14820.0,"2021-11-20 01:36:31.101923","","","","","","",""
13.0,0.06538133323192596,0.0019707511144234557,"train",14840.0,"2021-11-20 01:36:39.712283","","","","","","",""
13.0,0.06940845400094986,0.001971661272529935,"train",14860.0,"2021-11-20 01:36:48.369759","","","","","","",""
13.0,0.04781423509120941,0.001972557257039875,"train",14880.0,"2021-11-20 01:36:57.323863","","","","","","",""
13.0,0.04103105515241623,0.0019734390543224385,"train",14900.0,"2021-11-20 01:37:05.932715","","","","","","",""
13.0,0.06264648586511612,0.001974306650962622,"train",14920.0,"2021-11-20 01:37:15.076368","","","","","","",""
13.0,0.05391135811805725,0.0019751600337614608,"train",14940.0,"2021-11-20 01:37:23.718287","","","","","","",""
13.0,0.07585711777210236,0.0019759991897362284,"train",14960.0,"2021-11-20 01:37:32.331289","","","","","","",""
13.0,0.032724134624004364,0.0019768241061206343,"train",14980.0,"2021-11-20 01:37:41.008282","","","","","","",""
13.0,0.06530819833278656,0.0019776347703650186,"train",15000.0,"2021-11-20 01:37:49.799282","","","","","","",""
13.0,0.05540916323661804,0.001978431170136543,"train",15020.0,"2021-11-20 01:37:58.877667","","","","","","",""
13.0,"","","train",15036.0,"2021-11-20 01:42:36.873280",0.6235319799170487,0.662308527609978,0.9643749368668428,0.6521334090095425,0.5482675175294076,0.5824206447206195,0.3720847456051952
13.0,"","","val",15036.0,"2021-11-20 01:43:50.245673",0.6006610228458773,0.6101528983103445,0.9559057975052876,0.6209361834871266,0.5048583362806736,0.5363994345669314,0.33451295432728867
14.0,0.04277186468243599,0.0019792132933193784,"train",15040.0,"2021-11-20 01:43:56.354113","","","","","","",""
14.0,0.05087702348828316,0.001979981128014888,"train",15060.0,"2021-11-20 01:44:05.100927","","","","","","",""
14.0,0.08477479219436646,0.001980734662541811,"train",15080.0,"2021-11-20 01:44:13.863056","","","","","","",""
14.0,0.04612867906689644,0.0019814738854364374,"train",15100.0,"2021-11-20 01:44:22.391693","","","","","","",""
14.0,0.0423501580953598,0.0019821987854527832,"train",15120.0,"2021-11-20 01:44:31.501366","","","","","","",""
14.0,0.030385630205273628,0.0019829093515627634,"train",15140.0,"2021-11-20 01:44:40.194956","","","","","","",""
14.0,0.062292929738759995,0.001983605572956358,"train",15160.0,"2021-11-20 01:44:48.892274","","","","","","",""
14.0,0.06133104860782623,0.001984287439041775,"train",15180.0,"2021-11-20 01:44:57.545152","","","","","","",""
14.0,0.05673353746533394,0.001984954939445616,"train",15200.0,"2021-11-20 01:45:06.365416","","","","","","",""
14.0,0.04526760056614876,0.0019856080640130295,"train",15220.0,"2021-11-20 01:45:15.007681","","","","","","",""
14.0,0.05224310979247093,0.0019862468028078676,"train",15240.0,"2021-11-20 01:45:24.100243","","","","","","",""
14.0,0.05258923023939133,0.001986871146112837,"train",15260.0,"2021-11-20 01:45:32.746091","","","","","","",""
14.0,0.07575251907110214,0.0019874810844296466,"train",15280.0,"2021-11-20 01:45:41.381430","","","","","","",""
14.0,0.038699835538864136,0.0019880766084791517,"train",15300.0,"2021-11-20 01:45:50.124198","","","","","","",""
14.0,0.05113384127616882,0.0019886577092014953,"train",15320.0,"2021-11-20 01:45:58.995785","","","","","","",""
14.0,0.0372454859316349,0.001989224377756247,"train",15340.0,"2021-11-20 01:46:08.150710","","","","","","",""
14.0,0.052358657121658325,0.0019897766055225353,"train",15360.0,"2021-11-20 01:46:16.832472","","","","","","",""
14.0,0.04616551846265793,0.0019903143840991813,"train",15380.0,"2021-11-20 01:46:25.469098","","","","","","",""
14.0,0.0477757565677166,0.0019908377053048246,"train",15400.0,"2021-11-20 01:46:34.083307","","","","","","",""
14.0,0.05555250123143196,0.001991346561178048,"train",15420.0,"2021-11-20 01:46:42.797898","","","","","","",""
14.0,0.04315554350614548,0.0019918409439775003,"train",15440.0,"2021-11-20 01:46:52.064472","","","","","","",""
14.0,0.02987600862979889,0.0019923208461820117,"train",15460.0,"2021-11-20 01:47:00.770889","","","","","","",""
14.0,0.04992786794900894,0.001992786260490709,"train",15480.0,"2021-11-20 01:47:09.768689","","","","","","",""
14.0,0.06441155821084976,0.0019932371798231287,"train",15500.0,"2021-11-20 01:47:18.445190","","","","","","",""
14.0,0.05559144914150238,0.0019936735973193212,"train",15520.0,"2021-11-20 01:47:27.076559","","","","","","",""
14.0,0.04605238512158394,0.001994095506339958,"train",15540.0,"2021-11-20 01:47:36.290314","","","","","","",""
14.0,0.06495225429534912,0.001994502900466431,"train",15560.0,"2021-11-20 01:47:44.758423","","","","","","",""
14.0,0.03687659278512001,0.0019948957735009517,"train",15580.0,"2021-11-20 01:47:53.618694","","","","","","",""
14.0,0.04687841236591339,0.0019952741194666436,"train",15600.0,"2021-11-20 01:48:02.436092","","","","","","",""
14.0,0.06277216970920563,0.0019956379326076354,"train",15620.0,"2021-11-20 01:48:11.028612","","","","","","",""
14.0,0.05288435518741608,0.001995987207389146,"train",15640.0,"2021-11-20 01:48:20.085837","","","","","","",""
14.0,0.03208455443382263,0.0019963219384975706,"train",15660.0,"2021-11-20 01:48:28.648223","","","","","","",""
14.0,0.07378779351711273,0.001996642120840561,"train",15680.0,"2021-11-20 01:48:37.374120","","","","","","",""
14.0,0.040707021951675415,0.001996947749547103,"train",15700.0,"2021-11-20 01:48:46.015290","","","","","","",""
14.0,0.03810630366206169,0.0019972388199675905,"train",15720.0,"2021-11-20 01:48:54.778793","","","","","","",""
14.0,0.038992371410131454,0.001997515327673896,"train",15740.0,"2021-11-20 01:49:04.114468","","","","","","",""
14.0,0.04280199483036995,0.0019977772684594388,"train",15760.0,"2021-11-20 01:49:12.816254","","","","","","",""
14.0,0.0642264261841774,0.0019980246383392475,"train",15780.0,"2021-11-20 01:49:21.432867","","","","","","",""
14.0,0.04494273662567139,0.0019982574335500225,"train",15800.0,"2021-11-20 01:49:30.068482","","","","","","",""
14.0,0.04204772040247917,0.001998475650550192,"train",15820.0,"2021-11-20 01:49:38.741689","","","","","","",""
14.0,0.07424296438694,0.0019986792860199657,"train",15840.0,"2021-11-20 01:49:47.837751","","","","","","",""
14.0,0.05238442122936249,0.001998868336861386,"train",15860.0,"2021-11-20 01:49:56.400853","","","","","","",""
14.0,0.031261831521987915,0.001999042800198376,"train",15880.0,"2021-11-20 01:50:04.984839","","","","","","",""
14.0,0.06720219552516937,0.00199920267337678,"train",15900.0,"2021-11-20 01:50:13.515284","","","","","","",""
14.0,0.07635527849197388,0.0019993479539644077,"train",15920.0,"2021-11-20 01:50:22.029362","","","","","","",""
14.0,0.0394352562725544,0.0019994786397510697,"train",15940.0,"2021-11-20 01:50:31.116373","","","","","","",""
14.0,0.036410726606845856,0.0019995947287486096,"train",15960.0,"2021-11-20 01:50:39.783897","","","","","","",""
14.0,0.04554784297943115,0.0019996962191909367,"train",15980.0,"2021-11-20 01:50:48.339823","","","","","","",""
14.0,0.04352624714374542,0.0019997831095340513,"train",16000.0,"2021-11-20 01:50:56.862778","","","","","","",""
14.0,0.05130741372704506,0.001999855398456069,"train",16020.0,"2021-11-20 01:51:05.442589","","","","","","",""
14.0,0.07557026296854019,0.00199991308485724,"train",16040.0,"2021-11-20 01:51:14.851371","","","","","","",""
14.0,0.0684426873922348,0.001999956167859967,"train",16060.0,"2021-11-20 01:51:23.452430","","","","","","",""
14.0,0.04281391575932503,0.0019999846468088172,"train",16080.0,"2021-11-20 01:51:32.029280","","","","","","",""
14.0,0.04615984112024307,0.0019999985212705335,"train",16100.0,"2021-11-20 01:51:40.818722","","","","","","",""
14.0,"","","train",16110.0,"2021-11-20 01:56:36.827913",0.6373135414392782,0.6761827662868334,0.9666574529788445,0.6695371674203721,0.5637457778035344,0.5898657679155821,0.39374743656347594
14.0,"","","val",16110.0,"2021-11-20 01:57:51.552407",0.612895743940624,0.6160019359002362,0.9557206313401737,0.6378791647049996,0.5308011786717445,0.5547556046432889,0.3601133049498602
15.0,0.036956436932086945,0.0019999995774202316,"train",16120.0,"2021-11-20 01:58:00.370962","","","","","","",""
15.0,0.03618573024868965,0.0019999966438102564,"train",16140.0,"2021-11-20 01:58:09.751949","","","","","","",""
15.0,0.0729571059346199,0.0019999909162942875,"train",16160.0,"2021-11-20 01:58:18.463829","","","","","","",""
15.0,0.030830811709165573,0.001999982394888327,"train",16180.0,"2021-11-20 01:58:27.186939","","","","","","",""
15.0,0.0501302033662796,0.0019999710796161823,"train",16200.0,"2021-11-20 01:58:35.901020","","","","","","",""
15.0,0.05464039742946625,0.0019999569705094686,"train",16220.0,"2021-11-20 01:58:44.654721","","","","","","",""
15.0,0.05512655898928642,0.001999940067607605,"train",16240.0,"2021-11-20 01:58:53.478092","","","","","","",""
15.0,0.06706766784191132,0.001999920370957817,"train",16260.0,"2021-11-20 01:59:02.638621","","","","","","",""
15.0,0.03538013622164726,0.0019998978806151355,"train",16280.0,"2021-11-20 01:59:11.415559","","","","","","",""
15.0,0.042257048189640045,0.0019998725966423976,"train",16300.0,"2021-11-20 01:59:20.133991","","","","","","",""
15.0,0.03383886069059372,0.001999844519110244,"train",16320.0,"2021-11-20 01:59:28.876814","","","","","","",""
15.0,0.04687165468931198,0.001999813648097122,"train",16340.0,"2021-11-20 01:59:37.652807","","","","","","",""
15.0,0.06822656095027924,0.001999779983689282,"train",16360.0,"2021-11-20 01:59:47.013371","","","","","","",""
15.0,0.07657374441623688,0.0019997435259807806,"train",16380.0,"2021-11-20 01:59:55.960482","","","","","","",""
15.0,0.04906691983342171,0.001999704275073478,"train",16400.0,"2021-11-20 02:00:04.846059","","","","","","",""
15.0,0.060638852417469025,0.0019996622310770383,"train",16420.0,"2021-11-20 02:00:13.519850","","","","","","",""
15.0,0.08036727458238602,0.0019996173941089286,"train",16440.0,"2021-11-20 02:00:22.163041","","","","","","",""
15.0,0.056844063103199005,0.0019995697642944212,"train",16460.0,"2021-11-20 02:00:31.415472","","","","","","",""
15.0,0.07803589105606079,0.0019995193417665894,"train",16480.0,"2021-11-20 02:00:40.353605","","","","","","",""
15.0,0.06298638880252838,0.0019994661266663108,"train",16500.0,"2021-11-20 02:00:49.383380","","","","","","",""
15.0,0.06426002830266953,0.001999410119142264,"train",16520.0,"2021-11-20 02:00:58.072579","","","","","","",""
15.0,0.0740872249007225,0.0019993513193509297,"train",16540.0,"2021-11-20 02:01:06.876110","","","","","","",""
15.0,0.05441634729504585,0.0019992897274565906,"train",16560.0,"2021-11-20 02:01:16.250469","","","","","","",""
15.0,0.055025964975357056,0.0019992253436313303,"train",16580.0,"2021-11-20 02:01:25.012855","","","","","","",""
15.0,0.03731007128953934,0.0019991581680550313,"train",16600.0,"2021-11-20 02:01:33.834819","","","","","","",""
15.0,0.033400047570466995,0.0019990882009153785,"train",16620.0,"2021-11-20 02:01:42.772183","","","","","","",""
15.0,0.06634355336427689,0.001999015442407854,"train",16640.0,"2021-11-20 02:01:51.421009","","","","","","",""
15.0,0.061496224254369736,0.0019989398927357403,"train",16660.0,"2021-11-20 02:02:00.780316","","","","","","",""
15.0,0.050338562577962875,0.0019988615521101174,"train",16680.0,"2021-11-20 02:02:09.488122","","","","","","",""
15.0,0.04348791763186455,0.0019987804207498637,"train",16700.0,"2021-11-20 02:02:18.420127","","","","","","",""
15.0,0.037410981953144073,0.0019986964988816533,"train",16720.0,"2021-11-20 02:02:27.105334","","","","","","",""
15.0,0.06776275485754013,0.0019986097867399585,"train",16740.0,"2021-11-20 02:02:35.969705","","","","","","",""
15.0,0.059672512114048004,0.0019985202845670463,"train",16760.0,"2021-11-20 02:02:45.315261","","","","","","",""
15.0,0.06296060979366302,0.0019984279926129798,"train",16780.0,"2021-11-20 02:02:53.987479","","","","","","",""
15.0,0.03482910990715027,0.001998332911135615,"train",16800.0,"2021-11-20 02:03:02.661651","","","","","","",""
15.0,0.048992231488227844,0.0019982350404006036,"train",16820.0,"2021-11-20 02:03:11.383624","","","","","","",""
15.0,0.055323775857686996,0.0019981343806813883,"train",16840.0,"2021-11-20 02:03:20.044561","","","","","","",""
15.0,0.052877429872751236,0.001998030932259205,"train",16860.0,"2021-11-20 02:03:28.655660","","","","","","",""
15.0,0.04415644705295563,0.0019979246954230823,"train",16880.0,"2021-11-20 02:03:38.210170","","","","","","",""
15.0,0.04134378209710121,0.0019978156704698363,"train",16900.0,"2021-11-20 02:03:47.331581","","","","","","",""
15.0,0.07167420536279678,0.001997703857704076,"train",16920.0,"2021-11-20 02:03:55.931090","","","","","","",""
15.0,0.04513141140341759,0.0019975892574381976,"train",16940.0,"2021-11-20 02:04:04.596796","","","","","","",""
15.0,0.0514766126871109,0.001997471869992386,"train",16960.0,"2021-11-20 02:04:13.371640","","","","","","",""
15.0,0.038182616233825684,0.0019973516956946127,"train",16980.0,"2021-11-20 02:04:22.634541","","","","","","",""
15.0,0.0314054861664772,0.0019972287348806366,"train",17000.0,"2021-11-20 02:04:31.284942","","","","","","",""
15.0,0.04103156551718712,0.0019971029878940003,"train",17020.0,"2021-11-20 02:04:39.937745","","","","","","",""
15.0,0.045884858816862106,0.0019969744550860317,"train",17040.0,"2021-11-20 02:04:48.581847","","","","","","",""
15.0,0.052485283464193344,0.0019968431368158433,"train",17060.0,"2021-11-20 02:04:57.291807","","","","","","",""
15.0,0.03777513653039932,0.001996709033450327,"train",17080.0,"2021-11-20 02:05:06.785826","","","","","","",""
15.0,0.039992012083530426,0.0019965721453641585,"train",17100.0,"2021-11-20 02:05:15.759776","","","","","","",""
15.0,0.06764263659715652,0.0019964324729397935,"train",17120.0,"2021-11-20 02:05:24.505252","","","","","","",""
15.0,0.045107338577508926,0.0019962900165674657,"train",17140.0,"2021-11-20 02:05:33.414035","","","","","","",""
15.0,0.04445516690611839,0.0019961447766451887,"train",17160.0,"2021-11-20 02:05:42.109215","","","","","","",""
15.0,0.043434493243694305,0.001995996753578751,"train",17180.0,"2021-11-20 02:05:51.337388","","","","","","",""
15.0,"","","train",17184.0,"2021-11-20 02:10:25.247684",0.6383759004584152,0.6848865604793943,0.9674644124756475,0.6428230006136292,0.5464236919501698,0.5774767675773478,0.3854862395705499
15.0,"","","val",17184.0,"2021-11-20 02:11:39.265643",0.6161428737098458,0.6260883468562393,0.9565567850720231,0.6131789822705435,0.5116137352525445,0.5364882609972829,0.35097846969735497
16.0,0.07176604121923447,0.001995845947781719,"train",17200.0,"2021-11-20 02:11:50.634508","","","","","","",""
16.0,0.058313511312007904,0.001995692359675433,"train",17220.0,"2021-11-20 02:11:59.283823","","","","","","",""
16.0,0.023977156728506088,0.0019955359896890066,"train",17240.0,"2021-11-20 02:12:07.897955","","","","","","",""
16.0,0.09183797985315323,0.0019953768382593258,"train",17260.0,"2021-11-20 02:12:16.556120","","","","","","",""
16.0,0.07084880024194717,0.0019952149058310486,"train",17280.0,"2021-11-20 02:12:25.732450","","","","","","",""
16.0,0.03481341525912285,0.001995050192856602,"train",17300.0,"2021-11-20 02:12:34.369799","","","","","","",""
16.0,0.028671013191342354,0.001994882699796182,"train",17320.0,"2021-11-20 02:12:42.964241","","","","","","",""
16.0,0.0649290382862091,0.001994712427117752,"train",17340.0,"2021-11-20 02:12:51.648274","","","","","","",""
16.0,0.04354764148592949,0.0019945393752970413,"train",17360.0,"2021-11-20 02:13:00.380423","","","","","","",""
16.0,0.040938615798950195,0.001994363544817544,"train",17380.0,"2021-11-20 02:13:09.722565","","","","","","",""
16.0,0.05352349579334259,0.001994184936170517,"train",17400.0,"2021-11-20 02:13:18.407716","","","","","","",""
16.0,0.057298388332128525,0.0019940035498549804,"train",17420.0,"2021-11-20 02:13:27.277601","","","","","","",""
16.0,0.03750818967819214,0.0019938193863777145,"train",17440.0,"2021-11-20 02:13:35.882410","","","","","","",""
16.0,0.03293953835964203,0.001993632446253258,"train",17460.0,"2021-11-20 02:13:44.453283","","","","","","",""
16.0,0.047561705112457275,0.0019934427300039074,"train",17480.0,"2021-11-20 02:13:53.518440","","","","","","",""
16.0,0.07498925924301147,0.001993250238159717,"train",17500.0,"2021-11-20 02:14:02.160904","","","","","","",""
16.0,0.06264480203390121,0.0019930549712584944,"train",17520.0,"2021-11-20 02:14:10.836615","","","","","","",""
16.0,0.0465410090982914,0.001992856929845801,"train",17540.0,"2021-11-20 02:14:19.553751","","","","","","",""
16.0,0.06366614252328873,0.0019926561144749497,"train",17560.0,"2021-11-20 02:14:28.126200","","","","","","",""
16.0,0.05086291953921318,0.001992452525707004,"train",17580.0,"2021-11-20 02:14:36.907227","","","","","","",""
16.0,0.029135828837752342,0.0019922461641107767,"train",17600.0,"2021-11-20 02:14:46.139625","","","","","","",""
16.0,0.07677736133337021,0.001992037030262826,"train",17620.0,"2021-11-20 02:14:54.683136","","","","","","",""
16.0,0.04690336063504219,0.0019918251247474567,"train",17640.0,"2021-11-20 02:15:03.367447","","","","","","",""
16.0,0.04433688893914223,0.001991610448156718,"train",17660.0,"2021-11-20 02:15:11.939567","","","","","","",""
16.0,0.045599352568387985,0.0019913930010903996,"train",17680.0,"2021-11-20 02:15:20.602968","","","","","","",""
16.0,0.06005268171429634,0.001991172784156033,"train",17700.0,"2021-11-20 02:15:29.784965","","","","","","",""
16.0,0.05845773592591286,0.0019909497979688877,"train",17720.0,"2021-11-20 02:15:38.256758","","","","","","",""
16.0,0.03245583921670914,0.0019907240431519713,"train",17740.0,"2021-11-20 02:15:46.745255","","","","","","",""
16.0,0.08440768718719482,0.001990495520336026,"train",17760.0,"2021-11-20 02:15:55.304343","","","","","","",""
16.0,0.039391256868839264,0.0019902642301595284,"train",17780.0,"2021-11-20 02:16:03.857332","","","","","","",""
16.0,0.06529475748538971,0.001990030173268685,"train",17800.0,"2021-11-20 02:16:12.996814","","","","","","",""
16.0,0.06606029719114304,0.0019897933503174345,"train",17820.0,"2021-11-20 02:16:21.501087","","","","","","",""
16.0,0.03760639578104019,0.0019895537619674425,"train",17840.0,"2021-11-20 02:16:30.146843","","","","","","",""
16.0,0.06578461080789566,0.001989311408888101,"train",17860.0,"2021-11-20 02:16:38.651632","","","","","","",""
16.0,0.07055281847715378,0.001989066291756527,"train",17880.0,"2021-11-20 02:16:47.214261","","","","","","",""
16.0,0.05853923782706261,0.00198881841125756,"train",17900.0,"2021-11-20 02:16:56.379225","","","","","","",""
16.0,0.04053890332579613,0.0019885677680837595,"train",17920.0,"2021-11-20 02:17:05.023804","","","","","","",""
16.0,0.03798387572169304,0.001988314362935404,"train",17940.0,"2021-11-20 02:17:13.717819","","","","","","",""
16.0,0.04423241689801216,0.0019880581965204896,"train",17960.0,"2021-11-20 02:17:22.306342","","","","","","",""
16.0,0.06633206456899643,0.0019877992695547255,"train",17980.0,"2021-11-20 02:17:30.981427","","","","","","",""
16.0,0.06838788092136383,0.0019875375827615354,"train",18000.0,"2021-11-20 02:17:40.164315","","","","","","",""
16.0,0.0532030314207077,0.0019872731368720527,"train",18020.0,"2021-11-20 02:17:48.702535","","","","","","",""
16.0,0.05655962973833084,0.00198700593262512,"train",18040.0,"2021-11-20 02:17:57.262630","","","","","","",""
16.0,0.06536984443664551,0.001986735970767286,"train",18060.0,"2021-11-20 02:18:05.846820","","","","","","",""
16.0,0.06908512115478516,0.001986463252052804,"train",18080.0,"2021-11-20 02:18:14.589606","","","","","","",""
16.0,0.046428579837083817,0.0019861877772436305,"train",18100.0,"2021-11-20 02:18:23.338463","","","","","","",""
16.0,0.038575898855924606,0.001985909547109422,"train",18120.0,"2021-11-20 02:18:32.569560","","","","","","",""
16.0,0.05293281748890877,0.001985628562427533,"train",18140.0,"2021-11-20 02:18:41.231886","","","","","","",""
16.0,0.05103077366948128,0.001985344823983014,"train",18160.0,"2021-11-20 02:18:49.805728","","","","","","",""
16.0,0.03992869332432747,0.001985058332568609,"train",18180.0,"2021-11-20 02:18:58.356253","","","","","","",""
16.0,0.05949567258358002,0.001984769088984755,"train",18200.0,"2021-11-20 02:19:07.066595","","","","","","",""
16.0,0.04945581778883934,0.001984477094039576,"train",18220.0,"2021-11-20 02:19:16.319899","","","","","","",""
16.0,0.03021351806819439,0.001984182348548885,"train",18240.0,"2021-11-20 02:19:24.848799","","","","","","",""
16.0,"","","train",18258.0,"2021-11-20 02:24:04.178933",0.6310994688204904,0.6886398608340696,0.9701427134170378,0.6755813488031898,0.5761082829593481,0.6106144396144809,0.3933925056802408
16.0,"","","val",18258.0,"2021-11-20 02:25:17.651705",0.6041980749159225,0.6197681114390796,0.9582780246227726,0.6391790499311414,0.5321301215371301,0.5601658905975672,0.35357522481013515
17.0,0.0357593297958374,0.00198388485333618,"train",18260.0,"2021-11-20 02:25:23.027010","","","","","","",""
17.0,0.042823776602745056,0.0019835846092326396,"train",18280.0,"2021-11-20 02:25:31.660302","","","","","","",""
17.0,0.06278707087039948,0.0019832816170771246,"train",18300.0,"2021-11-20 02:25:40.293415","","","","","","",""
17.0,0.06029607355594635,0.001982975877716172,"train",18320.0,"2021-11-20 02:25:49.415960","","","","","","",""
17.0,0.0395062081515789,0.0019826673920039957,"train",18340.0,"2021-11-20 02:25:57.939537","","","","","","",""
17.0,0.04600800946354866,0.0019823561608024822,"train",18360.0,"2021-11-20 02:26:06.499883","","","","","","",""
17.0,0.03171310946345329,0.0019820421849811886,"train",18380.0,"2021-11-20 02:26:15.106363","","","","","","",""
17.0,0.03378283232450485,0.0019817254654173402,"train",18400.0,"2021-11-20 02:26:23.743347","","","","","","",""
17.0,0.04128427058458328,0.0019814060029958278,"train",18420.0,"2021-11-20 02:26:32.803407","","","","","","",""
17.0,0.05639754235744476,0.001981083798609206,"train",18440.0,"2021-11-20 02:26:41.437545","","","","","","",""
17.0,0.05520941689610481,0.0019807588531576908,"train",18460.0,"2021-11-20 02:26:50.151691","","","","","","",""
17.0,0.060720015317201614,0.0019804311675491555,"train",18480.0,"2021-11-20 02:26:58.942101","","","","","","",""
17.0,0.062391869723796844,0.00198010074269913,"train",18500.0,"2021-11-20 02:27:07.692033","","","","","","",""
17.0,0.04826490581035614,0.0019797675795307965,"train",18520.0,"2021-11-20 02:27:16.741521","","","","","","",""
17.0,0.02553377114236355,0.0019794316789749885,"train",18540.0,"2021-11-20 02:27:25.324925","","","","","","",""
17.0,0.05084334686398506,0.0019790930419701877,"train",18560.0,"2021-11-20 02:27:33.855167","","","","","","",""
17.0,0.034630753099918365,0.0019787516694625214,"train",18580.0,"2021-11-20 02:27:42.247783","","","","","","",""
17.0,0.04850515350699425,0.0019784075624057584,"train",18600.0,"2021-11-20 02:27:50.679086","","","","","","",""
17.0,0.037392180413007736,0.0019780607217613094,"train",18620.0,"2021-11-20 02:27:59.917408","","","","","","",""
17.0,0.048312582075595856,0.001977711148498221,"train",18640.0,"2021-11-20 02:28:08.761622","","","","","","",""
17.0,0.03601310774683952,0.0019773588435931756,"train",18660.0,"2021-11-20 02:28:17.223111","","","","","","",""
17.0,0.06303051859140396,0.0019770038080304873,"train",18680.0,"2021-11-20 02:28:26.009286","","","","","","",""
17.0,0.03685443475842476,0.001976646042802099,"train",18700.0,"2021-11-20 02:28:34.971492","","","","","","",""
17.0,0.053175900131464005,0.0019762855489075808,"train",18720.0,"2021-11-20 02:28:43.580448","","","","","","",""
17.0,0.038851406425237656,0.001975922327354126,"train",18740.0,"2021-11-20 02:28:52.721977","","","","","","",""
17.0,0.043712250888347626,0.001975556379156549,"train",18760.0,"2021-11-20 02:29:01.263531","","","","","","",""
17.0,0.045009154826402664,0.0019751877053372823,"train",18780.0,"2021-11-20 02:29:09.945535","","","","","","",""
17.0,0.062689408659935,0.001974816306926373,"train",18800.0,"2021-11-20 02:29:18.675416","","","","","","",""
17.0,0.05701914057135582,0.001974442184961482,"train",18820.0,"2021-11-20 02:29:27.296711","","","","","","",""
17.0,0.07110343128442764,0.0019740653404878776,"train",18840.0,"2021-11-20 02:29:36.491468","","","","","","",""
17.0,0.07918441295623779,0.0019736857745584362,"train",18860.0,"2021-11-20 02:29:45.035639","","","","","","",""
17.0,0.0594702810049057,0.0019733034882336367,"train",18880.0,"2021-11-20 02:29:53.722006","","","","","","",""
17.0,0.038022372871637344,0.0019729184825815586,"train",18900.0,"2021-11-20 02:30:02.338419","","","","","","",""
17.0,0.05703142285346985,0.0019725307586778806,"train",18920.0,"2021-11-20 02:30:10.922537","","","","","","",""
17.0,0.042365264147520065,0.001972140317605874,"train",18940.0,"2021-11-20 02:30:20.063109","","","","","","",""
17.0,0.06992945820093155,0.0019717471604564028,"train",18960.0,"2021-11-20 02:30:28.684961","","","","","","",""
17.0,0.04534132778644562,0.0019713512883279185,"train",18980.0,"2021-11-20 02:30:37.234144","","","","","","",""
17.0,0.048707928508520126,0.00197095270232646,"train",19000.0,"2021-11-20 02:30:45.900369","","","","","","",""
17.0,0.04020841792225838,0.001970551403565646,"train",19020.0,"2021-11-20 02:30:54.582324","","","","","","",""
17.0,0.05977291986346245,0.0019701473931666765,"train",19040.0,"2021-11-20 02:31:03.901511","","","","","","",""
17.0,0.04345613345503807,0.001969740672258327,"train",19060.0,"2021-11-20 02:31:12.523932","","","","","","",""
17.0,0.04869377613067627,0.0019693312419769454,"train",19080.0,"2021-11-20 02:31:21.126928","","","","","","",""
17.0,0.05334031954407692,0.0019689191034664498,"train",19100.0,"2021-11-20 02:31:29.896766","","","","","","",""
17.0,0.07099521160125732,0.0019685042578783257,"train",19120.0,"2021-11-20 02:31:38.640510","","","","","","",""
17.0,0.03613988310098648,0.00196808670637162,"train",19140.0,"2021-11-20 02:31:47.841838","","","","","","",""
17.0,0.057090092450380325,0.001967666450112942,"train",19160.0,"2021-11-20 02:31:56.497811","","","","","","",""
17.0,0.04368217661976814,0.001967243490276456,"train",19180.0,"2021-11-20 02:32:05.152767","","","","","","",""
17.0,0.04706525802612305,0.0019668178280438818,"train",19200.0,"2021-11-20 02:32:13.861554","","","","","","",""
17.0,0.05055703595280647,0.0019663894646044875,"train",19220.0,"2021-11-20 02:32:22.489152","","","","","","",""
17.0,0.06821185350418091,0.001965958401155089,"train",19240.0,"2021-11-20 02:32:31.707418","","","","","","",""
17.0,0.035399436950683594,0.0019655246389000463,"train",19260.0,"2021-11-20 02:32:40.316826","","","","","","",""
17.0,0.06313818693161011,0.0019650881790512597,"train",19280.0,"2021-11-20 02:32:48.969022","","","","","","",""
17.0,0.07595562934875488,0.001964649022828165,"train",19300.0,"2021-11-20 02:32:57.452303","","","","","","",""
17.0,0.03744611516594887,0.0019642071714577325,"train",19320.0,"2021-11-20 02:33:06.181560","","","","","","",""
17.0,"","","train",19332.0,"2021-11-20 02:37:40.459884",0.6580077130175362,0.7121218881510037,0.9734278641751011,0.6872499206728737,0.5855283291805279,0.6141534377986221,0.41772393345359543
17.0,"","","val",19332.0,"2021-11-20 02:38:55.527715",0.6233329467702655,0.6378081960506402,0.9615050324627565,0.6452252818310314,0.5335204717806085,0.5590555774889784,0.36354140458636575
18.0,0.047419991344213486,0.0019637626261744634,"train",19340.0,"2021-11-20 02:39:03.476943","","","","","","",""
18.0,0.056483540683984756,0.001963315388220384,"train",19360.0,"2021-11-20 02:39:12.676132","","","","","","",""
18.0,0.05702609568834305,0.0019628654588450443,"train",19380.0,"2021-11-20 02:39:21.283466","","","","","","",""
18.0,0.04143763333559036,0.001962412839305514,"train",19400.0,"2021-11-20 02:39:29.820550","","","","","","",""
18.0,0.03788060322403908,0.0019619575308663785,"train",19420.0,"2021-11-20 02:39:38.408318","","","","","","",""
18.0,0.04189538210630417,0.001961499534799737,"train",19440.0,"2021-11-20 02:39:46.969890","","","","","","",""
18.0,0.03691963478922844,0.001961038852385196,"train",19460.0,"2021-11-20 02:39:56.109602","","","","","","",""
18.0,0.037532854825258255,0.0019605754849098683,"train",19480.0,"2021-11-20 02:40:04.650358","","","","","","",""
18.0,0.0423564575612545,0.0019601094336683693,"train",19500.0,"2021-11-20 02:40:13.281093","","","","","","",""
18.0,0.03492526337504387,0.0019596406999628116,"train",19520.0,"2021-11-20 02:40:21.719906","","","","","","",""
18.0,0.0359492190182209,0.0019591692851028022,"train",19540.0,"2021-11-20 02:40:30.314684","","","","","","",""
18.0,0.04876641184091568,0.001958695190405441,"train",19560.0,"2021-11-20 02:40:39.333693","","","","","","",""
18.0,0.04940366744995117,0.001958218417195312,"train",19580.0,"2021-11-20 02:40:48.104218","","","","","","",""
18.0,0.04139377176761627,0.001957738966804486,"train",19600.0,"2021-11-20 02:40:56.867017","","","","","","",""
18.0,0.059183839708566666,0.001957256840572511,"train",19620.0,"2021-11-20 02:41:05.605611","","","","","","",""
18.0,0.04202081263065338,0.0019567720398464133,"train",19640.0,"2021-11-20 02:41:14.203020","","","","","","",""
18.0,0.030790122225880623,0.00195628456598069,"train",19660.0,"2021-11-20 02:41:23.506737","","","","","","",""
18.0,0.07929149270057678,0.001955794420337307,"train",19680.0,"2021-11-20 02:41:32.199796","","","","","","",""
18.0,0.03236555680632591,0.0019553016042856957,"train",19700.0,"2021-11-20 02:41:40.837183","","","","","","",""
18.0,0.04469525068998337,0.001954806119202748,"train",19720.0,"2021-11-20 02:41:49.630275","","","","","","",""
18.0,0.04114319011569023,0.001954307966472812,"train",19740.0,"2021-11-20 02:41:58.318448","","","","","","",""
18.0,0.02793576754629612,0.0019538071474876914,"train",19760.0,"2021-11-20 02:42:07.515465","","","","","","",""
18.0,0.04023938998579979,0.001953303663646636,"train",19780.0,"2021-11-20 02:42:16.155590","","","","","","",""
18.0,0.06070294231176376,0.0019527975163563436,"train",19800.0,"2021-11-20 02:42:24.790921","","","","","","",""
18.0,0.046912599354982376,0.0019522887070309524,"train",19820.0,"2021-11-20 02:42:33.312070","","","","","","",""
18.0,0.04777299612760544,0.0019517772370920379,"train",19840.0,"2021-11-20 02:42:41.922040","","","","","","",""
18.0,0.09287436306476593,0.0019512631079686104,"train",19860.0,"2021-11-20 02:42:51.154044","","","","","","",""
18.0,0.05583922937512398,0.001950746321097108,"train",19880.0,"2021-11-20 02:42:59.887740","","","","","","",""
18.0,0.050354618579149246,0.0019502268779213957,"train",19900.0,"2021-11-20 02:43:08.478094","","","","","","",""
18.0,0.03548609837889671,0.0019497047798927598,"train",19920.0,"2021-11-20 02:43:17.219691","","","","","","",""
18.0,0.03158598020672798,0.001949180028469903,"train",19940.0,"2021-11-20 02:43:25.849537","","","","","","",""
18.0,0.05098745599389076,0.0019486526251189435,"train",19960.0,"2021-11-20 02:43:34.511809","","","","","","",""
18.0,0.04474514722824097,0.0019481225713134064,"train",19980.0,"2021-11-20 02:43:43.821028","","","","","","",""
18.0,0.06589728593826294,0.0019475898685342235,"train",20000.0,"2021-11-20 02:43:52.532681","","","","","","",""
18.0,0.03987685963511467,0.0019470545182697272,"train",20020.0,"2021-11-20 02:44:01.170050","","","","","","",""
18.0,0.031440336257219315,0.001946516522015647,"train",20040.0,"2021-11-20 02:44:09.693447","","","","","","",""
18.0,0.07782097905874252,0.0019459758812751047,"train",20060.0,"2021-11-20 02:44:18.276485","","","","","","",""
18.0,0.06640424579381943,0.0019454325975586106,"train",20080.0,"2021-11-20 02:44:27.320405","","","","","","",""
18.0,0.034294694662094116,0.0019448866723840602,"train",20100.0,"2021-11-20 02:44:36.125251","","","","","","",""
18.0,0.08315148949623108,0.001944338107276728,"train",20120.0,"2021-11-20 02:44:44.891342","","","","","","",""
18.0,0.04562869295477867,0.0019437869037692644,"train",20140.0,"2021-11-20 02:44:53.410996","","","","","","",""
18.0,0.03827984258532524,0.0019432330634016912,"train",20160.0,"2021-11-20 02:45:02.029983","","","","","","",""
18.0,0.07757506519556046,0.0019426765877213986,"train",20180.0,"2021-11-20 02:45:11.177593","","","","","","",""
18.0,0.03841693326830864,0.0019421174782831383,"train",20200.0,"2021-11-20 02:45:19.690768","","","","","","",""
18.0,0.032297972589731216,0.0019415557366490208,"train",20220.0,"2021-11-20 02:45:28.297739","","","","","","",""
