"epoch","f1_score","mean_error","part","precision","sensitivity","standard_deviation","step","time","loss","lr"
0.0,0.0,"","train",0.0,0.0,"",5.0,"2021-12-16 21:53:09.466524","",""
0.0,0.0,"","val",0.0,0.0,"",5.0,"2021-12-16 21:53:10.743030","",""
1.0,"","","train","","","",10.0,"2021-12-16 21:53:12.196812",0.27252399921417236,8.234893562899756e-05
1.0,0.0,"","train",0.0,0.0,"",10.0,"2021-12-16 21:53:14.919486","",""
1.0,0.0,"","val",0.0,0.0,"",10.0,"2021-12-16 21:53:16.277878","",""
2.0,0.0,"","train",0.0,0.0,"",15.0,"2021-12-16 21:53:20.372447","",""
2.0,0.0,"","val",0.0,0.0,"",15.0,"2021-12-16 21:53:21.747035","",""
3.0,"","","train","","","",20.0,"2021-12-16 21:53:23.198527",0.2564426362514496,8.938424772726283e-05
3.0,0.0,"","train",0.0,0.0,"",20.0,"2021-12-16 21:53:25.702607","",""
3.0,0.0,"","val",0.0,0.0,"",20.0,"2021-12-16 21:53:27.103798","",""
4.0,0.0,"","train",0.0,0.0,"",25.0,"2021-12-16 21:53:31.087342","",""
4.0,0.0,"","val",0.0,0.0,"",25.0,"2021-12-16 21:53:32.587285","",""
5.0,"","","train","","","",30.0,"2021-12-16 21:53:34.034246",0.23854118585586548,0.00010107150817969418
5.0,0.0,"","train",0.0,0.0,"",30.0,"2021-12-16 21:53:36.706516","",""
5.0,0.0,"","val",0.0,0.0,"",30.0,"2021-12-16 21:53:38.040748","",""
6.0,0.0,"","train",0.0,0.0,"",35.0,"2021-12-16 21:53:42.056669","",""
6.0,0.0,"","val",0.0,0.0,"",35.0,"2021-12-16 21:53:43.393035","",""
7.0,"","","train","","","",40.0,"2021-12-16 21:53:44.823849",0.23723207414150238,0.00011735352402278735
7.0,0.0,"","train",0.0,0.0,"",40.0,"2021-12-16 21:53:47.298729","",""
7.0,0.0,"","val",0.0,0.0,"",40.0,"2021-12-16 21:53:48.659858","",""
8.0,0.0,"","train",0.0,0.0,"",45.0,"2021-12-16 21:53:52.870313","",""
8.0,0.0,"","val",0.0,0.0,"",45.0,"2021-12-16 21:53:54.206742","",""
9.0,"","","train","","","",50.0,"2021-12-16 21:53:55.769116",0.22475507855415344,0.00013815061732503058
9.0,0.0,"","train",0.0,0.0,"",50.0,"2021-12-16 21:53:58.375824","",""
9.0,0.0,"","val",0.0,0.0,"",50.0,"2021-12-16 21:53:59.693517","",""
10.0,0.0,"","train",0.0,0.0,"",55.0,"2021-12-16 21:54:03.843558","",""
10.0,0.0,"","val",0.0,0.0,"",55.0,"2021-12-16 21:54:05.213084","",""
11.0,"","","train","","","",60.0,"2021-12-16 21:54:06.685547",0.21388819813728333,0.00016336101510009597
11.0,0.0,"","train",0.0,0.0,"",60.0,"2021-12-16 21:54:09.305901","",""
11.0,0.0,"","val",0.0,0.0,"",60.0,"2021-12-16 21:54:10.650288","",""
12.0,0.0,"","train",0.0,0.0,"",65.0,"2021-12-16 21:54:14.506458","",""
12.0,0.0,"","val",0.0,0.0,"",65.0,"2021-12-16 21:54:15.815909","",""
13.0,"","","train","","","",70.0,"2021-12-16 21:54:17.388629",0.211219921708107,0.0001928613473447438
13.0,0.0,"","train",0.0,0.0,"",70.0,"2021-12-16 21:54:20.054177","",""
13.0,0.0,"","val",0.0,0.0,"",70.0,"2021-12-16 21:54:21.424889","",""
14.0,0.0,"","train",0.0,0.0,"",75.0,"2021-12-16 21:54:25.604320","",""
14.0,0.0,"","val",0.0,0.0,"",75.0,"2021-12-16 21:54:26.921522","",""
15.0,"","","train","","","",80.0,"2021-12-16 21:54:28.351809",0.19817115366458893,0.00022650725076423114
15.0,0.0,"","train",0.0,0.0,"",80.0,"2021-12-16 21:54:30.815274","",""
15.0,0.0,"","val",0.0,0.0,"",80.0,"2021-12-16 21:54:32.190796","",""
16.0,0.0,"","train",0.0,0.0,"",85.0,"2021-12-16 21:54:36.223528","",""
16.0,0.0,"","val",0.0,0.0,"",85.0,"2021-12-16 21:54:37.524497","",""
17.0,"","","train","","","",90.0,"2021-12-16 21:54:39.086053",0.19930784404277802,0.0002641340752308249
17.0,0.0,"","train",0.0,0.0,"",90.0,"2021-12-16 21:54:41.861667","",""
17.0,0.0,"","val",0.0,0.0,"",90.0,"2021-12-16 21:54:43.197850","",""
18.0,0.0,"","train",0.0,0.0,"",95.0,"2021-12-16 21:54:47.249026","",""
18.0,0.0,"","val",0.0,0.0,"",95.0,"2021-12-16 21:54:48.555922","",""
19.0,"","","train","","","",100.0,"2021-12-16 21:54:49.991979",0.18881352245807648,0.0003055576895182844
19.0,0.0,"","train",0.0,0.0,"",100.0,"2021-12-16 21:54:52.464730","",""
19.0,0.0,"","val",0.0,0.0,"",100.0,"2021-12-16 21:54:53.829403","",""
20.0,0.0,"","train",0.0,0.0,"",105.0,"2021-12-16 21:54:57.855885","",""
20.0,0.0,"","val",0.0,0.0,"",105.0,"2021-12-16 21:54:59.181157","",""
21.0,"","","train","","","",110.0,"2021-12-16 21:55:00.769134",0.18203610181808472,0.0003505753823693557
21.0,0.0,"","train",0.0,0.0,"",110.0,"2021-12-16 21:55:03.397610","",""
21.0,0.0,"","val",0.0,0.0,"",110.0,"2021-12-16 21:55:04.784127","",""
22.0,0.0,"","train",0.0,0.0,"",115.0,"2021-12-16 21:55:08.760252","",""
22.0,0.0,"","val",0.0,0.0,"",115.0,"2021-12-16 21:55:10.060883","",""
23.0,"","","train","","","",120.0,"2021-12-16 21:55:11.518986",0.17744700610637665,0.00039896685448680353
23.0,0.0,"","train",0.0,0.0,"",120.0,"2021-12-16 21:55:14.150627","",""
23.0,0.0,"","val",0.0,0.0,"",120.0,"2021-12-16 21:55:15.494002","",""
24.0,0.0,"","train",0.0,0.0,"",125.0,"2021-12-16 21:55:19.704043","",""
24.0,0.0,"","val",0.0,0.0,"",125.0,"2021-12-16 21:55:21.007005","",""
25.0,"","","train","","","",130.0,"2021-12-16 21:55:22.429016",0.17989008128643036,0.000450495296593552
25.0,0.0,"","train",0.0,0.0,"",130.0,"2021-12-16 21:55:24.883916","",""
25.0,0.0,"","val",0.0,0.0,"",130.0,"2021-12-16 21:55:26.205558","",""
26.0,"","","train","","","",140.0,"2021-12-16 21:55:38.894777",0.17267709970474243,8.058741362327259e-05
26.0,0.0,"","train",0.0,0.0,"",140.0,"2021-12-16 21:55:41.493056","",""
26.0,0.0,"","val",0.0,0.0,"",140.0,"2021-12-16 21:55:42.835620","",""
27.0,0.0,"","train",0.0,0.0,"",145.0,"2021-12-16 21:55:46.846541","",""
27.0,0.0,"","val",0.0,0.0,"",145.0,"2021-12-16 21:55:48.181737","",""
28.0,"","","train","","","",150.0,"2021-12-16 21:55:49.813667",0.16990992426872253,8.528241030462502e-05
28.0,0.0,"","train",0.0,0.0,"",155.0,"2021-12-16 21:56:53.447685","",""
28.0,0.0,"","val",0.0,0.0,"",155.0,"2021-12-16 21:56:54.791260","",""
29.0,"","","train","","","",160.0,"2021-12-16 21:56:56.368079",0.16578656435012817,8.234893562899756e-05
29.0,0.0,"","train",0.0,0.0,"",160.0,"2021-12-16 21:56:59.100769","",""
29.0,0.10887479135300959,-67.39737991266375,"train",0.05765841376412249,0.9744680850948644,72.65385737646378,165.0,"2021-12-16 22:01:31.459131","",""
29.0,0.10484118621243885,-63.811764705882354,"val",0.05541069100376084,0.971428571382313,72.0494101894701,165.0,"2021-12-16 22:01:34.460087","",""
30.0,"","","train","","","",170.0,"2021-12-16 22:01:35.898195",0.16558115184307098,8.234893562899756e-05
30.0,0.08810515328981296,-85.99417758369724,"train",0.04613524947952559,0.9758522727157214,65.88472992380667,170.0,"2021-12-16 22:01:50.115091","",""
30.0,0.08987575115453098,-78.63529411764706,"val",0.047117516629602924,0.971428571382313,72.29463360750165,170.0,"2021-12-16 22:01:53.275828","",""
31.0,0.09640057315136809,-80.5294964028777,"train",0.05071141919004578,0.9733893557309361,69.09117264279469,175.0,"2021-12-16 22:02:08.748345","",""
31.0,0.09899855976856736,-76.50867052023122,"val",0.05213984327895283,0.9774011298974858,72.00430450340181,175.0,"2021-12-16 22:02:11.984998","",""
32.0,"","","train","","","",180.0,"2021-12-16 22:02:13.499522",0.1633528172969818,8.938424772726283e-05
32.0,0.09964514929076206,-72.55813953488372,"train",0.05249504043945998,0.9786628733881144,73.19901267779358,180.0,"2021-12-16 22:02:27.340354","",""
32.0,0.10107654515821894,-64.03550295857988,"val",0.05331230283897657,0.9712643677695755,75.64459827651721,180.0,"2021-12-16 22:02:30.378980","",""
33.0,0.10923907730925478,-66.75753228120516,"train",0.05784712424263573,0.9789325842582053,75.18806667346892,185.0,"2021-12-16 22:02:45.396574","",""
33.0,0.11125484049216404,-69.8953488372093,"val",0.05898491083659412,0.977272727226455,74.71597834618208,185.0,"2021-12-16 22:02:48.353860","",""
34.0,"","","train","","","",190.0,"2021-12-16 22:02:49.845727",0.16190530359745026,0.00010107150817969418
34.0,0.12073899439606567,-53.82183908045977,"train",0.06434316353882442,0.9775280898761992,74.49648904060113,190.0,"2021-12-16 22:03:03.033985","",""
34.0,0.11956136086473935,-57.455621301775146,"val",0.06372549019587818,0.9657142856682994,78.27602190004063,190.0,"2021-12-16 22:03:05.971996","",""
35.0,0.13353026772885884,-46.008849557522126,"train",0.07174603174596848,0.9617021276482067,75.4507003365267,195.0,"2021-12-16 22:03:20.091890","",""
35.0,0.13770756060570946,-56.77647058823529,"val",0.0741710296681422,0.960451977355911,76.8060010631198,195.0,"2021-12-16 22:03:22.868740","",""
36.0,"","","train","","","",200.0,"2021-12-16 22:03:24.310096",0.15970908105373383,0.00011735352402278735
36.0,0.14354365526429663,-38.52983988355167,"train",0.07753950338593159,0.964887640438145,78.99425235003605,200.0,"2021-12-16 22:03:37.623589","",""
36.0,0.1450282102330684,-41.377245508982035,"val",0.07836696386642278,0.9709302325110984,77.92208735526789,200.0,"2021-12-16 22:03:40.475272","",""
37.0,0.1634592384544231,-28.084302325581394,"train",0.08930425752846,0.963585434162423,76.97476850332944,205.0,"2021-12-16 22:03:54.677351","",""
37.0,0.15759310812940466,-39.78181818181818,"val",0.08584807492158407,0.9593023255349176,82.00990869380932,205.0,"2021-12-16 22:03:57.384601","",""
38.0,"","","train","","","",210.0,"2021-12-16 22:03:58.854930",0.16225840151309967,0.00013815061732503058
38.0,0.16634334019032146,-25.94752186588921,"train",0.09102972399140677,0.9634831460561389,78.5887004280305,210.0,"2021-12-16 22:04:11.684498","",""
38.0,0.16435641989845914,-33.2289156626506,"val",0.08992416034628961,0.9540229884600564,77.33752113904768,210.0,"2021-12-16 22:04:14.510580","",""
39.0,0.1718949084628247,-25.032640949554896,"train",0.09439775910353128,0.9601139601025627,75.65478054188915,215.0,"2021-12-16 22:04:27.990885","",""
39.0,0.17189910867188873,-28.81437125748503,"val",0.09445701357421542,0.9542857142402722,78.24027346750107,215.0,"2021-12-16 22:04:30.704956","",""
40.0,"","","train","","","",220.0,"2021-12-16 22:04:32.267665",0.15516877174377441,0.00016336101510009597
40.0,0.1729484267482767,-15.82798833819242,"train",0.09507969507958526,0.9554317548635627,78.4628535778558,220.0,"2021-12-16 22:04:44.963802","",""
40.0,0.17297848906863297,-15.502958579881657,"val",0.09515765765721115,0.9494382022027418,79.0271561639741,220.0,"2021-12-16 22:04:47.721139","",""
41.0,0.16955633248318838,-3.251127819548872,"train",0.09312421229508808,0.9459459459347327,79.85610236665818,225.0,"2021-12-16 22:05:01.582650","",""
41.0,0.1706208822615383,-10.781065088757396,"val",0.09368070953393533,0.9548022598420527,84.94568049966976,225.0,"2021-12-16 22:05:04.298876","",""
42.0,"","","train","","","",230.0,"2021-12-16 22:05:05.909871",0.15487003326416016,0.0001928613473447438
42.0,0.18115351626898718,-5.796711509715994,"train",0.10025475797979387,0.9382889200451344,79.94703359422522,230.0,"2021-12-16 22:05:18.042455","",""
42.0,0.18475234765048407,-7.0843373493975905,"val",0.1022167487679484,0.9595375722081149,82.78658945285518,230.0,"2021-12-16 22:05:20.890093","",""
43.0,0.19509377665615857,-8.366863905325443,"train",0.10871662914105726,0.9494382022360786,76.4035244407589,235.0,"2021-12-16 22:05:33.932301","",""
43.0,0.20447668988938753,-16.106508875739646,"val",0.11449864498580341,0.9548022598420527,74.85694770932375,235.0,"2021-12-16 22:05:36.609520","",""
44.0,"","","train","","","",240.0,"2021-12-16 22:05:38.061669",0.14556588232517242,0.00022650725076423114
44.0,0.2061172025056494,-11.771929824561404,"train",0.11542355720537262,0.9620253164444206,74.50794161773652,240.0,"2021-12-16 22:05:50.502221","",""
44.0,0.2115384416171534,-15.224242424242425,"val",0.1191335740065034,0.942857142812245,75.75833599618547,240.0,"2021-12-16 22:05:53.088028","",""
45.0,0.2051125796313806,-1.3353115727002967,"train",0.11497782326834559,0.9492957746367453,75.92208855491862,245.0,"2021-12-16 22:06:06.727736","",""
45.0,0.20347392634434433,-12.890243902439025,"val",0.1138888888882298,0.9534883720468272,79.95951812614244,245.0,"2021-12-16 22:06:09.421169","",""
46.0,"","","train","","","",250.0,"2021-12-16 22:06:10.895683",0.1461450606584549,0.0002641340752308249
46.0,0.20285967705590086,-1.1277533039647578,"train",0.11357571714460532,0.9484679665628079,78.8451696149126,250.0,"2021-12-16 22:06:22.890642","",""
46.0,0.2273324364348028,-2.46242774566474,"val",0.12891207153422185,0.9611111110666153,78.04500723812954,250.0,"2021-12-16 22:06:25.375567","",""
47.0,0.21580205487306992,4.547337278106509,"train",0.12173599855915461,0.9494382022360786,76.71828012113039,255.0,"2021-12-16 22:06:38.272211","",""
47.0,0.23823107657973697,11.652694610778443,"val",0.13610431947747823,0.9542857142402722,77.22181505432246,255.0,"2021-12-16 22:06:40.760998","",""
48.0,"","","train","","","",260.0,"2021-12-16 22:06:42.197194",0.14622792601585388,0.0003055576895182844
48.0,0.22840357222171515,4.711043872919818,"train",0.13006690279396224,0.9362606232184104,76.54211668681646,260.0,"2021-12-16 22:06:54.035880","",""
48.0,0.24581815927599104,12.118343195266272,"val",0.141186299080053,0.9494382022027418,70.74672021319178,260.0,"2021-12-16 22:06:56.496643","",""
49.0,0.23689799493587077,-0.21823617339312407,"train",0.13556231003016622,0.9382889200451344,73.1462091879207,265.0,"2021-12-16 22:07:09.260939","",""
49.0,0.25694963851558245,6.456140350877193,"val",0.14856646394332054,0.9499999999560186,69.18170079908404,265.0,"2021-12-16 22:07:11.823926","",""
50.0,"","","train","","","",270.0,"2021-12-16 22:07:13.260601",0.13041742146015167,0.0003505753823693557
50.0,0.24837328072758608,-3.7754491017964074,"train",0.14301006208495146,0.9435028248476517,76.02995703874413,270.0,"2021-12-16 22:07:24.500008","",""
50.0,0.2501850253395491,-5.668639053254438,"val",0.14395229982862043,0.9548022598420527,74.12149963943465,270.0,"2021-12-16 22:07:27.164432","",""
51.0,0.25510392893537787,-1.6417033773861969,"train",0.14717959801140557,0.9564606741461088,77.46899882652204,275.0,"2021-12-16 22:07:39.992155","",""
51.0,0.26080361565885796,3.616279069767442,"val",0.15087719298135324,0.9608938547038691,73.26674244802601,275.0,"2021-12-16 22:07:42.580165","",""
52.0,"","","train","","","",280.0,"2021-12-16 22:07:44.008649",0.1294376254081726,0.00039896685448680353
52.0,0.26571810749657365,-2.963820549927641,"train",0.15393183337017538,0.9705056179661691,75.92800778948121,280.0,"2021-12-16 22:07:55.270718","",""
52.0,0.2713487388186543,4.7294117647058815,"val",0.15784586815105348,0.9659090908633566,68.74597540909647,280.0,"2021-12-16 22:07:57.778554","",""
53.0,0.2779323813484482,-3.9456366237482117,"train",0.16176810923366164,0.9858956276329819,73.00767136080613,285.0,"2021-12-16 22:08:10.271791","",""
53.0,0.2850041172364946,-8.953488372093023,"val",0.16731517509591995,0.9608938547038691,67.13625627361054,285.0,"2021-12-16 22:08:12.851894","",""
54.0,"","","train","","","",290.0,"2021-12-16 22:08:14.304099",0.12487975507974625,0.000450495296593552
54.0,0.30626242107866264,-8.219653179190752,"train",0.18148439548871953,0.9801699716598185,66.38213306780041,290.0,"2021-12-16 22:08:25.417550","",""
54.0,0.32227485396602584,-12.694117647058823,"val",0.1929625425634415,0.9770114942060819,65.82517371651737,290.0,"2021-12-16 22:08:27.872263","",""
55.0,0.336887998777298,-10.192805755395684,"train",0.2032163742685107,0.9844192634444708,62.92178728508369,295.0,"2021-12-16 22:08:40.035643","",""
55.0,0.35257729027325146,-12.736842105263158,"val",0.2145545796715333,0.9884393063107689,57.05271789553471,295.0,"2021-12-16 22:08:42.363914","",""
56.0,"","","train","","","",300.0,"2021-12-16 22:08:43.917325",0.12030086666345596,0.0005049085482863277
56.0,0.3382035644588595,-6.031161473087819,"train",0.20398728691080614,0.9887955181957423,65.41957970337316,300.0,"2021-12-16 22:08:54.502163","",""
56.0,0.3386138329909836,-8.058479532163743,"val",0.20430107526678312,0.9884393063107689,60.76642151429595,300.0,"2021-12-16 22:08:56.831202","",""
57.0,0.35018865003087146,9.433908045977011,"train",0.21290914652744747,0.985835694039355,60.74088739859302,305.0,"2021-12-16 22:09:09.090112","",""
57.0,0.3564766539762882,4.8604651162790695,"val",0.21827411167281857,0.9717514123836276,61.384067850136645,305.0,"2021-12-16 22:09:11.478796","",""
58.0,"","","train","","","",310.0,"2021-12-16 22:09:12.908968",0.11406778544187546,0.0005619403320118162
58.0,0.3609451789926023,15.058992805755397,"train",0.2211966900057787,0.9802538786908761,56.47155751011878,310.0,"2021-12-16 22:09:24.081615","",""
58.0,0.3751339458026107,7.222857142857142,"val",0.2311756935245357,0.9943181817711024,62.24955805104982,310.0,"2021-12-16 22:09:26.373971","",""
59.0,0.35605286985633333,20.337142857142858,"train",0.21691973969575218,0.9929078014067031,50.072639153900546,315.0,"2021-12-16 22:09:38.420118","",""
59.0,0.3663157594118584,19.24137931034483,"val",0.22451612902984389,0.9942857142383674,46.75368705535336,315.0,"2021-12-16 22:09:40.777270","",""
60.0,"","","train","","","",320.0,"2021-12-16 22:09:42.235316",0.10526958853006363,0.0006213115561267304
60.0,0.3704288042013182,23.46590909090909,"train",0.22761073391467934,0.9943502824741719,48.9843316469749,320.0,"2021-12-16 22:09:52.914797","",""
60.0,0.3574296891290756,21.0561797752809,"val",0.21840490797322692,0.9834254143193636,51.760112088203705,320.0,"2021-12-16 22:09:55.224963","",""
61.0,0.34332020718757716,32.54077253218884,"train",0.20747996438060878,0.9943100995614709,50.97402614952506,325.0,"2021-12-16 22:10:07.441833","",""
61.0,0.34712408822843427,37.13953488372093,"val",0.2102689486531146,0.9942196531312997,44.45121778505471,325.0,"2021-12-16 22:10:09.698376","",""
62.0,"","","train","","","",330.0,"2021-12-16 22:10:11.120996",0.10052430629730225,0.0006827316806651098
62.0,0.3824331385668297,38.54493580599144,"train",0.23682432432365758,0.9929178470137757,37.76396085806114,330.0,"2021-12-16 22:10:21.662139","",""
62.0,0.3873873560071075,38.13953488372093,"val",0.2405594405566368,0.9942196531312997,31.913095216467088,330.0,"2021-12-16 22:10:23.968713","",""
63.0,0.39374473223892587,43.5177304964539,"train",0.24555903866177417,0.9929577464672187,34.992765784669,335.0,"2021-12-16 22:10:36.463385","",""
63.0,0.40740737495784995,39.67045454545455,"val",0.2558139534852735,0.9999999999526515,37.02217443362003,335.0,"2021-12-16 22:10:38.713876","",""
64.0,"","","train","","","",340.0,"2021-12-16 22:10:40.164004",0.09500377625226974,0.0007459001391293184
64.0,0.4194127885894885,46.174285714285716,"train",0.26626093571615866,0.9873060648685082,31.167903296795043,340.0,"2021-12-16 22:10:51.061459","",""
64.0,0.4158653516677191,47.72254335260116,"val",0.262518968130216,0.9999999999518305,31.913419910908484,340.0,"2021-12-16 22:10:53.404095","",""
65.0,0.5165562527554863,51.73504273504273,"train",0.3497757847519109,0.9873417721403265,32.7338119873075,345.0,"2021-12-16 22:11:05.487206","",""
65.0,0.5250378975332436,49.47976878612717,"val",0.35596707818319673,0.9999999999518305,33.130777754659206,345.0,"2021-12-16 22:11:07.688178","",""
66.0,"","","train","","","",350.0,"2021-12-16 22:11:09.238044",0.08643852919340134,0.0008105078093470317
66.0,0.5535574263525945,44.02542372881356,"train",0.38499184339140385,0.9847009735629959,32.29602532726121,350.0,"2021-12-16 22:11:19.609213","",""
66.0,0.5645932607609745,43.27683615819209,"val",0.3942093541129508,0.9943820224253567,32.210767318290365,350.0,"2021-12-16 22:11:22.002469","",""
67.0,0.7496012287848152,52.10780141843971,"train",0.6046312178344437,0.9860139860024939,34.08907412352033,355.0,"2021-12-16 22:11:33.812865","",""
67.0,0.7526881249687469,53.417142857142856,"val",0.6055363321624702,0.9943181817711024,32.18735763986747,355.0,"2021-12-16 22:11:35.949274","",""
68.0,"","","train","","","",360.0,"2021-12-16 22:11:37.388789",0.0816737711429596,0.0008762385261964151
68.0,0.8608373892037796,42.2346208869814,"train",0.7647702406932461,0.9845070422419658,29.69086125432631,360.0,"2021-12-16 22:11:47.347308","",""
68.0,0.8793969355557126,43.38285714285714,"val",0.7882882882586979,0.9943181817711024,30.00012843509922,360.0,"2021-12-16 22:11:49.431666","",""
69.0,0.8883248235399945,45.2,"train",0.811123986087185,0.9817671809141915,29.22308285291905,365.0,"2021-12-16 22:12:00.689674","",""
69.0,0.8778054369346819,45.02272727272727,"val",0.7857142856850553,0.9943502824390608,34.43042301403832,365.0,"2021-12-16 22:12:02.812337","",""
70.0,"","","train","","","",370.0,"2021-12-16 22:12:04.291641",0.080707848072052,0.0009427706287967865
70.0,0.884999950582112,45.51129943502825,"train",0.7981961668470668,0.9929873772674965,34.346088964029484,370.0,"2021-12-16 22:12:14.382954","",""
70.0,0.8486351867685933,45.461988304093566,"val",0.7402597402330354,0.9941860464634601,39.72761813688649,370.0,"2021-12-16 22:12:16.520514","",""
71.0,0.9031838359925202,50.336690647482015,"train",0.8323353293330106,0.9872159090792232,28.555970898224984,375.0,"2021-12-16 22:12:27.930089","",""
71.0,0.9002557047934914,53.26136363636363,"val",0.8301886792126498,0.9832402234179125,30.657564066705174,375.0,"2021-12-16 22:12:30.040559","",""
72.0,"","","train","","","",380.0,"2021-12-16 22:12:31.463321",0.07939808815717697,0.0010097785345934164
72.0,0.9130998205812433,45.82954545454545,"train",0.8481927710758213,0.9887640449322476,32.351310775365775,380.0,"2021-12-16 22:12:41.272396","",""
72.0,0.8929503420236037,47.1578947368421,"val",0.8181818181491953,0.9827586206425882,36.53971138157181,380.0,"2021-12-16 22:12:43.443335","",""
73.0,0.9036374743495924,45.56214689265537,"train",0.8271028037302657,0.9957805907056284,31.688193668773895,385.0,"2021-12-16 22:12:55.187405","",""
73.0,0.9030611747845977,47.25423728813559,"val",0.83490566034454,0.9833333332878087,28.821441261596753,385.0,"2021-12-16 22:12:57.370345","",""
74.0,"","","train","","","",390.0,"2021-12-16 22:12:58.963694",0.07447820156812668,0.0010769343326334927
74.0,0.877589404482774,45.27038626609442,"train",0.7889390519113154,0.9886845827323351,30.745805789904757,390.0,"2021-12-16 22:13:08.865252","",""
74.0,0.876847241303278,48.8876404494382,"val",0.7841409691342093,0.9944134077749343,32.69056084850525,390.0,"2021-12-16 22:13:10.984695","",""
75.0,0.908619522601492,45.54065620542083,"train",0.8385167464031248,0.9915134370463046,34.63080376792012,395.0,"2021-12-16 22:13:22.224578","",""
75.0,0.9132652564168169,44.89385474860335,"val",0.8443396226083201,0.9944444443984054,37.12224883925986,395.0,"2021-12-16 22:13:24.278101","",""
76.0,"","","train","","","",400.0,"2021-12-16 22:13:25.826546",0.07598883658647537,0.001143909388236369
76.0,0.9119373280349407,49.118741058655225,"train",0.8411552346486044,0.9957264957146755,29.895410064208825,400.0,"2021-12-16 22:13:35.881042","",""
76.0,0.9013332837288324,51.32544378698225,"val",0.8243902438689272,0.9941176470100922,29.015309220853588,400.0,"2021-12-16 22:13:38.090463","",""
77.0,0.9167204150447298,46.63661971830986,"train",0.8574879226966838,0.9847434119164962,30.496553670157457,405.0,"2021-12-16 22:13:49.680885","",""
77.0,0.9358288271366569,45.645714285714284,"val",0.8838383838011853,0.9943181817711024,32.42909049301386,405.0,"2021-12-16 22:13:51.765609","",""
78.0,"","","train","","","",410.0,"2021-12-16 22:13:53.211228",0.07118694484233856,0.001210375951205462
78.0,0.9193757629990139,48.78076379066478,"train",0.8569696969610406,0.9915848527233334,31.16686437191433,410.0,"2021-12-16 22:14:03.452361","",""
78.0,0.9386666168130396,51.68181818181818,"val",0.8844221105157277,0.9999999999526515,27.728204157231747,410.0,"2021-12-16 22:14:05.661155","",""
79.0,0.9034748538945481,46.6980056980057,"train",0.8268551236667956,0.9957446808392937,28.648323917102495,415.0,"2021-12-16 22:14:16.790853","",""
79.0,0.903394206162928,47.73410404624278,"val",0.8357487922368861,0.9829545454080041,29.49671959679302,415.0,"2021-12-16 22:14:18.943786","",""
80.0,"","","train","","","",420.0,"2021-12-16 22:14:20.410073",0.06706805527210236,0.0012760087597118244
80.0,0.9085009236822432,44.54,"train",0.843373493967436,0.9845288326185592,27.26965555861889,420.0,"2021-12-16 22:14:30.265255","",""
80.0,0.9386666167533064,44.14772727272727,"val",0.8934010151906345,0.9887640448975299,29.568887123863856,420.0,"2021-12-16 22:14:32.457839","",""
81.0,0.9161289825282579,48.97464788732395,"train",0.8523409363660229,0.9902370990122008,33.5129477535107,425.0,"2021-12-16 22:14:43.761154","",""
81.0,0.9081364331895876,52.138728323699425,"val",0.8439024389900853,0.9829545454080041,30.184468551482574,425.0,"2021-12-16 22:14:45.875634","",""
82.0,"","","train","","","",430.0,"2021-12-16 22:14:47.295968",0.06860898435115814,0.0013404866320005978
82.0,0.9014809549098926,48.831428571428575,"train",0.8264462809836044,0.9915014164188916,28.839657927717436,430.0,"2021-12-16 22:14:57.707987","",""
82.0,0.9238844646849617,45.14772727272727,"val",0.8585365853309539,0.9999999999526515,33.65433910046751,430.0,"2021-12-16 22:14:59.875569","",""
83.0,0.9064934568510455,49.03724928366762,"train",0.8349282296567491,0.9914772727155364,31.25826037573472,435.0,"2021-12-16 22:15:11.591906","",""
83.0,0.9368420553896609,50.49438202247191,"val",0.8855721392667674,0.9944134077749343,27.245502090595902,435.0,"2021-12-16 22:15:13.742165","",""
84.0,"","","train","","","",440.0,"2021-12-16 22:15:15.183469",0.06700145453214645,0.0014034940381311555
84.0,0.913881698411203,40.438818565400844,"train",0.8434163700984241,0.997194950899986,25.7043421388815,440.0,"2021-12-16 22:15:24.983750","",""
84.0,0.944297032341514,41.741573033707866,"val",0.8944723617715883,0.9999999999531836,27.505271441600552,440.0,"2021-12-16 22:15:27.111760","",""
85.0,0.9112118751296586,54.29018492176387,"train",0.8439375750215692,0.9901408450588011,29.08536516814567,445.0,"2021-12-16 22:15:38.503319","",""
85.0,0.9090908593352475,53.31428571428572,"val",0.8454106279852894,0.983146067369703,30.087654258441454,445.0,"2021-12-16 22:15:40.577784","",""
86.0,"","","train","","","",450.0,"2021-12-16 22:15:42.144001",0.061617739498615265,0.0014647226440594326
86.0,0.9193442125404738,44.17403708987161,"train",0.8580171358541613,0.9901129943386285,28.79032289757121,450.0,"2021-12-16 22:15:52.137187","",""
86.0,0.9508196221610107,45.55172413793103,"val",0.9157894736440444,0.9886363635895533,26.89112087817872,450.0,"2021-12-16 22:15:54.197106","",""
87.0,0.9190600024765573,47.96590909090909,"train",0.8564476885557942,0.9915492957630099,28.252895613320597,455.0,"2021-12-16 22:16:05.513699","",""
87.0,0.9436996820198068,49.30681818181818,"val",0.8934010151906345,0.9999999999526515,27.958515516315114,455.0,"2021-12-16 22:16:07.672854","",""
88.0,"","","train","","","",460.0,"2021-12-16 22:16:09.271062",0.060421090573072433,0.0015238728205063073
88.0,0.9133246592277835,43.52974504249292,"train",0.8465227817661218,0.9915730336962596,27.681000411612438,460.0,"2021-12-16 22:16:19.615382","",""
88.0,0.9439999501148472,45.28813559322034,"val",0.8939393939017702,0.9999999999529191,28.569896950780635,460.0,"2021-12-16 22:16:21.903494","",""
89.0,0.9167212617024266,46.389127324749644,"train",0.857668711647672,0.9845070422419658,29.981734004499298,465.0,"2021-12-16 22:16:33.343140","",""
89.0,0.9259258761216586,47.33714285714286,"val",0.8663366336276265,0.9943181817711024,22.91189442456579,465.0,"2021-12-16 22:16:35.573832","",""
90.0,"","","train","","","",470.0,"2021-12-16 22:16:37.025803",0.05959763005375862,0.0015806551092282012
90.0,0.9214520954009908,47.11461318051576,"train",0.8670807453326389,0.9830985915377569,31.537143947194593,470.0,"2021-12-16 22:16:47.097978","",""
90.0,0.9109947146665415,45.64367816091954,"val",0.8446601941405882,0.9886363635895533,35.77113618788592,470.0,"2021-12-16 22:16:49.239190","",""
91.0,0.9264413020766086,51.0414878397711,"train",0.8715710723101457,0.9886845827323351,34.37706002364525,475.0,"2021-12-16 22:17:00.513168","",""
91.0,0.9329758214304736,51.195402298850574,"val",0.8832487309271045,0.9886363635895533,28.782912827147413,475.0,"2021-12-16 22:17:02.604429","",""
92.0,"","","train","","","",480.0,"2021-12-16 22:17:04.064973",0.059895433485507965,0.0016347916395145414
92.0,0.9341316866998784,43.863247863247864,"train",0.8808030112831366,0.9943342776086598,30.718157992904217,480.0,"2021-12-16 22:17:14.224441","",""
92.0,0.936986251435544,44.87719298245614,"val",0.8952879580761218,0.9827586206425882,31.51166321279221,480.0,"2021-12-16 22:17:16.291745","",""
93.0,0.93121688136099,49.89772727272727,"train",0.8822055137752484,0.9859943977475957,30.257808824082268,485.0,"2021-12-16 22:17:27.909048","",""
93.0,0.9162303166838016,46.05714285714286,"val",0.8578431372198594,0.983146067369703,28.431313579163636,485.0,"2021-12-16 22:17:30.090923","",""
94.0,"","","train","","","",490.0,"2021-12-16 22:17:31.551978",0.05708383023738861,0.0016860174879802872
94.0,0.9222729743834785,50.97167138810198,"train",0.8641370868944905,0.9887955181957423,32.76911749669818,490.0,"2021-12-16 22:17:41.526261","",""
94.0,0.9239129936490851,49.49411764705882,"val",0.8673469387386332,0.9883720929753697,30.70164721751118,490.0,"2021-12-16 22:17:43.600447","",""
95.0,0.9349269089917175,49.05965909090909,"train",0.8833124215716927,0.992947813810614,32.15510824499612,495.0,"2021-12-16 22:17:55.220490","",""
95.0,0.9602272227221638,49.4792899408284,"val",0.9337016574155755,0.9883040935190885,29.38523735898257,495.0,"2021-12-16 22:17:57.302029","",""
96.0,"","","train","","","",500.0,"2021-12-16 22:17:58.759712",0.055008724331855774,0.0017340819749992146
96.0,0.9225677861203032,48.83500717360114,"train",0.8604938271516409,0.9942938658940288,29.64036048397097,500.0,"2021-12-16 22:18:08.643339","",""
96.0,0.9427082834565366,42.92817679558011,"val",0.8916256157269448,0.9999999999539596,33.97009298070752,500.0,"2021-12-16 22:18:10.756638","",""
97.0,0.911842055478318,53.35642135642136,"train",0.854500616514031,0.9774330042198233,36.04480464882096,505.0,"2021-12-16 22:18:22.111132","",""
97.0,0.9453551412869426,53.421965317919074,"val",0.9105263157495384,0.9829545454080041,32.07705647666085,505.0,"2021-12-16 22:18:24.241480","",""
98.0,"","","train","","","",510.0,"2021-12-16 22:18:25.685560",0.05582226812839508,0.0017787498914337246
98.0,0.9335988877433923,45.652916073968704,"train",0.8820577164274146,0.9915373765750877,28.556432899043347,510.0,"2021-12-16 22:18:35.531347","",""
98.0,0.9263157396325051,43.56818181818182,"val",0.8712871286769271,0.9887640448975299,28.164208207704725,510.0,"2021-12-16 22:18:37.649686","",""
99.0,0.930013409099542,50.196816208393635,"train",0.8802547770607191,0.9857346647529037,29.982465522002812,515.0,"2021-12-16 22:18:49.026065","",""
99.0,0.9329758213327226,47.05747126436781,"val",0.9015544041061505,0.9666666666219137,28.63859477779724,515.0,"2021-12-16 22:18:51.162278","",""
100.0,"","","train","","","",520.0,"2021-12-16 22:18:52.593778",0.053601108491420746,0.001819802649658012
100.0,0.9241924354160816,48.353780313837376,"train",0.8622386223773858,0.9957386363518496,33.14052263235239,520.0,"2021-12-16 22:19:02.461855","",""
100.0,0.9230768733333361,45.63333333333333,"val",0.8571428571088436,0.9999999999537038,37.27821824545207,520.0,"2021-12-16 22:19:04.691595","",""
101.0,0.9373736875119797,46.38505747126437,"train",0.8888888888794285,0.991452991441222,27.75469320874651,525.0,"2021-12-16 22:19:15.729702","",""
101.0,0.9340658842058153,45.77647058823529,"val",0.8808290155060091,0.9941520467351779,24.92099349855493,525.0,"2021-12-16 22:19:17.833733","",""
102.0,"","","train","","","",530.0,"2021-12-16 22:19:19.281723",0.05300513654947281,0.0018570393532419485
102.0,0.9427011779341157,46.55861070911722,"train",0.8997395833235705,0.9899713466930519,29.435508653753242,530.0,"2021-12-16 22:19:29.054075","",""
102.0,0.958448703504682,47.13294797687861,"val",0.9202127659166573,0.9999999999518305,25.124193507492294,530.0,"2021-12-16 22:19:31.310266","",""
103.0,0.9420484676339651,47.1244635193133,"train",0.8973042361906578,0.9914893616904078,29.440567703681424,535.0,"2021-12-16 22:19:42.648493","",""
103.0,0.9283819129788223,42.32,"val",0.8793969848877975,0.983146067369703,28.944684189970754,535.0,"2021-12-16 22:19:44.836163","",""
104.0,"","","train","","","",540.0,"2021-12-16 22:19:46.305230",0.04872570186853409,0.0018902777800610452
104.0,0.9316522395133727,47.945868945868945,"train",0.8753117206891592,0.9957446808392937,28.065499879820283,540.0,"2021-12-16 22:19:56.224690","",""
104.0,0.9462365091898899,45.76136363636363,"val",0.9072164948063911,0.9887640448975299,29.181444259145003,540.0,"2021-12-16 22:19:58.347392","",""
105.0,0.934926908955122,49.20170454545455,"train",0.888888888879536,0.9859943977475957,30.377065912595334,545.0,"2021-12-16 22:20:09.985144","",""
105.0,0.9599999500373361,48.77777777777778,"val",0.9230769230374753,0.9999999999537038,27.50223335487816,545.0,"2021-12-16 22:20:12.141743","",""
106.0,"","","train","","","",550.0,"2021-12-16 22:20:13.574647",0.04824439808726311,0.001919355274021537
106.0,0.9380412559313285,39.53693181818182,"train",0.8900126422156551,0.9915492957630099,26.599220334521878,550.0,"2021-12-16 22:20:23.688656","",""
106.0,0.9526315289942318,35.966850828729285,"val",0.9141414141029403,0.9945054944599586,30.846241486437634,550.0,"2021-12-16 22:20:25.917502","",""
107.0,0.9286190295443597,41.13505747126437,"train",0.8776796973426052,0.985835694039355,30.01329457812785,555.0,"2021-12-16 22:20:37.430036","",""
107.0,0.949999950081021,41.92982456140351,"val",0.9047619047220123,0.9999999999512671,23.475650928545708,555.0,"2021-12-16 22:20:39.613123","",""
108.0,"","","train","","","",560.0,"2021-12-16 22:20:41.062908",0.04530392214655876,0.0019441295410368286
108.0,0.9442578412989512,45.59032716927454,"train",0.90243902438059,0.9901408450588011,26.20745591805238,560.0,"2021-12-16 22:20:50.903469","",""
108.0,0.9641872778253383,45.58857142857143,"val",0.935828876963644,0.9943181817711024,26.24656463429149,560.0,"2021-12-16 22:20:53.148153","",""
109.0,0.9395348338700188,49.7991513437058,"train",0.889308176091307,0.9957746478756364,34.52976657962769,565.0,"2021-12-16 22:21:04.848456","",""
109.0,0.9373296503639276,48.18604651162791,"val",0.8911917098060799,0.9885057470790947,32.459818318964174,565.0,"2021-12-16 22:21:06.971741","",""
110.0,"","","train","","","",570.0,"2021-12-16 22:21:08.394586",0.04680541530251503,0.001964479345360098
110.0,0.9499999500714811,53.18349928876245,"train",0.9129870129771321,0.9901408450588011,29.961362710410775,570.0,"2021-12-16 22:21:18.035026","",""
110.0,0.9499999500316385,53.719298245614034,"val",0.9144385026330465,0.9884393063107689,28.964439410848843,570.0,"2021-12-16 22:21:20.036873","",""
111.0,0.9356336594833955,40.14751773049645,"train",0.8890290037737596,0.987394957971669,30.302509274091857,575.0,"2021-12-16 22:21:31.283513","",""
111.0,0.9673912543409368,40.91011235955056,"val",0.9417989417574163,0.9944134077749343,25.12626113976729,575.0,"2021-12-16 22:21:33.580159","",""
112.0,"","","train","","","",580.0,"2021-12-16 22:21:35.011490",0.04519841820001602,0.0019803051028654743
112.0,0.9419794722781654,50.553623188405794,"train",0.9007832898074326,0.9871244635075449,30.66888419696743,580.0,"2021-12-16 22:21:45.009781","",""
112.0,0.9369862513574805,44.93567251461988,"val",0.9144385026330465,0.9606741572583954,33.52107588728756,580.0,"2021-12-16 22:21:47.106380","",""
113.0,0.9400798435929513,45.6628895184136,"train",0.8948035487864934,0.9901823281791703,30.837134261163953,585.0,"2021-12-16 22:21:58.244090","",""
113.0,0.9529085373245064,47.18604651162791,"val",0.9100529100127843,0.9999999999515504,25.967560992607936,585.0,"2021-12-16 22:22:00.488886","",""
114.0,"","","train","","","",590.0,"2021-12-16 22:22:01.927245",0.04558360204100609,0.001991529368374499
114.0,0.9262457973567501,55.09325681492109,"train",0.8723404255228165,0.9872521246342392,35.094848696519655,590.0,"2021-12-16 22:22:12.325608","",""
114.0,0.9362880386857606,52.437869822485204,"val",0.8989361701729196,0.9768786126697072,30.732631852008723,590.0,"2021-12-16 22:22:14.557053","",""
115.0,0.9325396326624682,52.141843971631204,"train",0.8867924528208931,0.9832635983149317,34.35025711658728,595.0,"2021-12-16 22:22:26.056443","",""
115.0,0.9318800590122458,45.36842105263158,"val",0.8999999999605264,0.9661016948697693,33.1803321467187,595.0,"2021-12-16 22:22:28.226556","",""
116.0,"","","train","","","",600.0,"2021-12-16 22:22:29.689330",0.04675083979964256,0.0019980972146430805
116.0,0.9327114757995547,49.80285714285714,"train",0.8827238335342295,0.988700564960114,35.4304307115813,600.0,"2021-12-16 22:22:39.739316","",""
116.0,0.9336869527663864,45.80681818181818,"val",0.8844221105157277,0.9887640448975299,33.45803272029598,600.0,"2021-12-16 22:22:41.921073","",""
117.0,0.9182057549314812,49.82471264367816,"train",0.8645962732829752,0.9789029535750244,35.35075912755535,605.0,"2021-12-16 22:22:53.429189","",""
117.0,0.9529085372447037,45.45348837209303,"val",0.9297297296878501,0.977272727226455,30.08211899418153,605.0,"2021-12-16 22:22:55.605947","",""
118.0,"","","train","","","",610.0,"2021-12-16 22:22:57.054293",0.04394577071070671,0.001999995524010177
118.0,0.941649849492936,46.794871794871796,"train",0.8999999999903845,0.9873417721403265,29.103422555959686,610.0,"2021-12-16 22:23:06.798125","",""
118.0,0.9388888389704244,44.071005917159766,"val",0.8941798941404683,0.9883040935190885,26.532011248332115,610.0,"2021-12-16 22:23:08.894472","",""
119.0,0.9367428841714258,46.78735632183908,"train",0.8911651728458049,0.9872340425415219,33.83089557357027,615.0,"2021-12-16 22:23:20.652306","",""
119.0,0.9441340282245171,44.9112426035503,"val",0.9135135134723643,0.9768786126697072,29.261488780902305,615.0,"2021-12-16 22:23:22.864861","",""
120.0,"","","train","","","",620.0,"2021-12-16 22:23:24.339455",0.04023103788495064,0.001999458453713358
120.0,0.9396951125227309,45.06064880112835,"train",0.8873591989894934,0.998591549284054,31.196415658400028,620.0,"2021-12-16 22:23:34.717021","",""
120.0,0.9613259168615148,41.87356321839081,"val",0.9304812833809947,0.9942857142383674,31.12684637839809,620.0,"2021-12-16 22:23:36.830895","",""
121.0,0.945205429525711,50.83188405797102,"train",0.9078947368321502,0.9857142857025509,30.134733644295654,625.0,"2021-12-16 22:23:48.227397","",""
121.0,0.9326145053191542,45.95375722543353,"val",0.8917525772812822,0.9774011298974858,28.493547597120724,625.0,"2021-12-16 22:23:50.340002","",""
