"epoch","f1_score","mean_error","part","precision","sensitivity","standard_deviation","step","time","loss","lr"
0.0,0.06381064441804728,-110.99109792284867,"train",0.033010089137022476,0.9533239038077165,57.03518028541002,5.0,"2022-03-25 23:09:25.263176","",""
0.0,0.06159768364796923,-107.5375,"val",0.031859816806000495,0.9248554912849299,58.41969782316578,5.0,"2022-03-25 23:09:28.438136","",""
1.0,"","","train","","","",10.0,"2022-03-25 23:09:29.891767",0.2651806175708771,8.234893562899756e-05
1.0,0.06078447751377612,-115.08262108262109,"train",0.03136168691921634,0.983193277299449,45.23684439851683,10.0,"2022-03-25 23:09:45.013509","",""
1.0,0.058663022858720076,-111.5,"val",0.030233784496352268,0.9828571428103402,49.45428944172635,10.0,"2022-03-25 23:09:48.336378","",""
2.0,0.05517080747343773,-119.59326788218794,"train",0.028371334208736762,0.9958100558543317,37.012981455069465,15.0,"2022-03-25 23:10:06.603869","",""
2.0,0.05400484911413679,-115.19101123595506,"val",0.02775179295287944,0.9999999999531836,44.25484837388305,15.0,"2022-03-25 23:10:10.467321","",""
3.0,"","","train","","","",20.0,"2022-03-25 23:10:12.057130",0.22892771661281586,8.938424772726283e-05
3.0,0.04604532238438564,-129.4354609929078,"train",0.023565984757313932,0.9985835693933122,30.761201349677954,20.0,"2022-03-25 23:10:31.020929","",""
3.0,0.04410474446504346,-120.2159090909091,"val",0.02254964766173121,0.9999999999526515,41.58205165246298,20.0,"2022-03-25 23:10:35.476724","",""
4.0,0.04444023173139118,-130.2869318181818,"train",0.02272653904509186,0.9971671387984281,30.111205814219073,25.0,"2022-03-25 23:10:56.911354","",""
4.0,0.04201375899296988,-124.59770114942529,"val",0.021460286137126437,0.9942857142383674,36.49734985501583,25.0,"2022-03-25 23:11:01.380746","",""
5.0,"","","train","","","",30.0,"2022-03-25 23:11:02.849432",0.21094276010990143,0.00010107150817969418
5.0,0.04432254781986635,-129.6358463726885,"train",0.02266572091822966,0.9957507082035439,32.00735105535837,30.0,"2022-03-25 23:11:23.433984","",""
5.0,0.042604112632557034,-128.95505617977528,"val",0.021765712888214554,0.9999999999531836,28.535965917409218,30.0,"2022-03-25 23:11:28.112868","",""
6.0,0.04860589883781438,-123.60448807854138,"train",0.024911778065049874,0.9944211994305622,37.06777965312396,35.0,"2022-03-25 23:11:49.339135","",""
6.0,0.046862584754843686,-120.92655367231639,"val",0.023996746203877446,0.9943820224253567,36.62668944428706,35.0,"2022-03-25 23:11:53.777930","",""
7.0,"","","train","","","",40.0,"2022-03-25 23:11:55.297111",0.1994718760251999,0.00011735352402278735
7.0,0.052696485485888664,-117.80141843971631,"train",0.0270643786709576,0.9957627118526863,42.72724310030508,40.0,"2022-03-25 23:12:14.844986","",""
7.0,0.0493119217412824,-117.8953488372093,"val",0.02528668038809016,0.9885057470790947,42.959290916414155,40.0,"2022-03-25 23:12:19.098402","",""
8.0,0.05681863351536771,-112.89801699716713,"train",0.029248487861453155,0.9901823281791703,47.428650113531376,45.0,"2022-03-25 23:12:39.419829","",""
8.0,0.054379725842431,-109.77272727272727,"val",0.02795869737883511,0.9887640448975299,50.09121844484576,45.0,"2022-03-25 23:12:43.613463","",""
9.0,"","","train","","","",50.0,"2022-03-25 23:12:45.188910",0.1902962476015091,0.00013815061732503058
9.0,0.06034037573954016,-105.01709401709402,"train",0.03111702127658425,0.991525423717143,55.74634497839163,50.0,"2022-03-25 23:13:03.297714","",""
9.0,0.05497170027131785,-101.45882352941176,"val",0.028281483946059612,0.9770114942060819,58.174494702661875,50.0,"2022-03-25 23:13:07.459532","",""
10.0,0.06476575898915504,-99.66145092460881,"train",0.03348416289591431,0.9845938375235224,59.340465029598114,55.0,"2022-03-25 23:13:26.209016","",""
10.0,0.059685483676971976,-106.10778443113773,"val",0.03078908554567541,0.9709302325110984,53.61260799298816,55.0,"2022-03-25 23:13:30.085215","",""
11.0,"","","train","","","",60.0,"2022-03-25 23:13:31.752417",0.18543164432048798,0.00016336101510009597
11.0,0.06829889912819363,-91.10919540229885,"train",0.035380235868224134,0.9816643159264026,67.56903346401123,60.0,"2022-03-25 23:13:48.685268","",""
11.0,0.06234555528415211,-92.73170731707317,"val",0.032239040691907084,0.9425287355870438,69.13719989470351,60.0,"2022-03-25 23:13:52.509611","",""
12.0,0.07364505114858577,-83.82106782106783,"train",0.03827460510326306,0.9705882352827895,69.11389070250095,65.0,"2022-03-25 23:14:10.589757","",""
12.0,0.06566455020533805,-82.02409638554217,"val",0.034023365443680356,0.9378531073004778,71.57100710426269,65.0,"2022-03-25 23:14:14.212215","",""
13.0,"","","train","","","",70.0,"2022-03-25 23:14:15.606665",0.17983664572238922,0.0001928613473447438
13.0,0.07741641771502099,-81.34604105571847,"train",0.04033355018035743,0.9605633802704159,70.04163334913973,70.0,"2022-03-25 23:14:31.676275","",""
13.0,0.07092197849676264,-77.68484848484849,"val",0.036863270777411264,0.9322033897866195,71.82097322282686,70.0,"2022-03-25 23:14:35.438492","",""
14.0,0.08383813081885622,-75.878612716763,"train",0.04381133270019848,0.9705469845608865,68.37559695788492,75.0,"2022-03-25 23:14:53.069409","",""
14.0,0.07298306580462448,-71.5421686746988,"val",0.037951531778619964,0.9485714285262585,78.907189833025,75.0,"2022-03-25 23:14:57.049441","",""
15.0,"","","train","","","",80.0,"2022-03-25 23:14:58.408721",0.17609739303588867,0.00022650725076423114
15.0,0.08995364352270929,-74.92597968069666,"train",0.047153024911005134,0.9745403111624876,70.5475703897795,80.0,"2022-03-25 23:15:15.012829","",""
15.0,0.07819123082298518,-82.4578313253012,"val",0.04079626443835341,0.9378531073004778,66.58182776154418,80.0,"2022-03-25 23:15:18.833186","",""
16.0,0.10118701980707939,-77.98855507868383,"train",0.05332621299966094,0.9872881355815997,66.03116172101576,85.0,"2022-03-25 23:15:35.740505","",""
16.0,0.08322949576997403,-84.63473053892216,"val",0.04351224596134377,0.9542857142402722,61.134225474185804,85.0,"2022-03-25 23:15:39.334078","",""
17.0,"","","train","","","",90.0,"2022-03-25 23:15:40.871195",0.1696176826953888,0.0002641340752308249
17.0,0.10775192765147525,-75.64028776978417,"train",0.056990569905660114,0.9858156028252266,66.31429495233364,90.0,"2022-03-25 23:15:55.948009","",""
17.0,0.08868264145755052,-74.48837209302326,"val",0.046461372231121775,0.9717514123836276,65.43126060830389,90.0,"2022-03-25 23:15:59.329904","",""
18.0,0.12383299865269241,-68.46941678520626,"train",0.06605280466028841,0.9887482419012101,67.50410231947819,95.0,"2022-03-25 23:16:15.085274","",""
18.0,0.1028337615808839,-64.625,"val",0.054270736971800106,0.9777777777325104,67.79846681358455,95.0,"2022-03-25 23:16:18.350717","",""
19.0,"","","train","","","",100.0,"2022-03-25 23:16:19.781542",0.16203278303146362,0.0003055576895182844
19.0,0.1526534033993029,-60.58369098712446,"train",0.08278067266690077,0.9789915966272292,66.66004817730304,100.0,"2022-03-25 23:16:33.133264","",""
19.0,0.12217030794971397,-63.76470588235294,"val",0.06520905255061626,0.9659090908633566,66.72501022569706,100.0,"2022-03-25 23:16:36.236083","",""
20.0,0.1752927680420347,-58.275862068965516,"train",0.09622563251751667,0.9830508474460563,68.77502715295007,105.0,"2022-03-25 23:16:50.694726","",""
20.0,0.15405526428561833,-53.55294117647059,"val",0.08353808353774145,0.9883720929753697,73.107737722343,105.0,"2022-03-25 23:16:53.583764","",""
21.0,"","","train","","","",110.0,"2022-03-25 23:16:54.935441",0.15415717661380768,0.0003505753823693557
21.0,0.20928828005967756,-47.815561959654175,"train",0.11717035286156062,0.9788434414553496,69.01489201458672,110.0,"2022-03-25 23:17:07.564423","",""
21.0,0.1663222981135059,-38.53416149068323,"val",0.09111488398372422,0.9526627218465156,69.47996995031663,110.0,"2022-03-25 23:17:10.230743","",""
22.0,0.24482510272807823,-29.081632653061224,"train",0.14022894521644141,0.9634831460561389,71.90317254758187,115.0,"2022-03-25 23:17:23.915745","",""
22.0,0.22982214024189834,-23.666666666666668,"val",0.13063763608002438,0.9545454545002583,75.94348358096762,115.0,"2022-03-25 23:17:26.565031","",""
23.0,"","","train","","","",120.0,"2022-03-25 23:17:27.978035",0.14386431872844696,0.00039896685448680353
23.0,0.2805710489475076,-19.91740412979351,"train",0.16424418604618005,0.9617021276482067,75.2825491363762,120.0,"2022-03-25 23:17:39.644781","",""
23.0,0.2373887022133407,-12.2625,"val",0.13559322033802546,0.9523809523337112,78.89427161556154,120.0,"2022-03-25 23:17:42.088220","",""
24.0,0.29848781042973305,-13.444933920704846,"train",0.1771131339397982,0.9484679665628079,77.73816311463521,125.0,"2022-03-25 23:17:55.135107","",""
24.0,0.2734627582833038,-7.479289940828402,"val",0.16003787878661585,0.9388888888454219,75.28133338944168,125.0,"2022-03-25 23:17:57.556289","",""
25.0,"","","train","","","",130.0,"2022-03-25 23:17:59.033521",0.13987623155117035,0.000450495296593552
25.0,0.32924690614571556,-2.2857142857142856,"train",0.19987849331662647,0.933333333322301,78.95412740071501,130.0,"2022-03-25 23:18:10.256703","",""
25.0,0.2864913604245376,-8.924050632911392,"val",0.17025862068812625,0.9028571428141497,75.4200510813362,130.0,"2022-03-25 23:18:12.676983","",""
26.0,0.3799884001561774,9.278538812785389,"train",0.2386487468209267,0.9319148936060057,80.46219252084914,135.0,"2022-03-25 23:18:25.289179","",""
26.0,0.3419688822191225,-5.503030303030303,"val",0.2088607594914677,0.942857142812245,79.40182611764835,135.0,"2022-03-25 23:18:27.591852","",""
27.0,"","","train","","","",140.0,"2022-03-25 23:18:29.037969",0.1318579763174057,0.0005049085482863277
27.0,0.49374536264199687,35.97615499254844,"train",0.3331678252220574,0.9531249999887177,70.58393465102023,140.0,"2022-03-25 23:18:39.619716","",""
27.0,0.4376657468382624,29.721212121212123,"val",0.28497409326014717,0.942857142812245,74.04172352649003,140.0,"2022-03-25 23:18:41.786695","",""
28.0,0.5645495638993443,47.73529411764706,"train",0.401416765051154,0.9510489510378665,64.80650331542599,145.0,"2022-03-25 23:18:53.480666","",""
28.0,0.47928990258788506,44.5679012345679,"val",0.3227091633412565,0.931034482714031,65.63628518306182,145.0,"2022-03-25 23:18:55.794179","",""
29.0,"","","train","","","",150.0,"2022-03-25 23:18:57.172056",0.12835700809955597,0.0005619403320118162
29.0,0.5687039018706096,60.707317073170735,"train",0.4110275689201596,0.9226441631396782,58.43048565413019,150.0,"2022-03-25 23:19:07.311562","",""
29.0,0.4472934104320747,51.78343949044586,"val",0.29566854990119795,0.9181286549260171,66.59491750765545,150.0,"2022-03-25 23:19:09.455818","",""
30.0,0.5552742197010601,75.26747720364742,"train",0.3959085439209992,0.9293785310625072,45.162235818119385,155.0,"2022-03-25 23:19:20.904565","",""
30.0,0.5048543283213446,81.74358974358974,"val",0.35214446951933515,0.8914285713861225,37.13089663002549,155.0,"2022-03-25 23:19:23.225477","",""
31.0,"","","train","","","",160.0,"2022-03-25 23:19:24.579504",0.11284442245960236,0.0006213115561267304
31.0,0.5920443594070575,82.75,"train",0.43895747599200413,0.909090909080148,43.94072712188545,160.0,"2022-03-25 23:19:34.428812","",""
31.0,0.5692883449267571,85.07894736842105,"val",0.4281690140744561,0.8491620111336518,42.71132080851348,160.0,"2022-03-25 23:19:36.587085","",""
32.0,0.6524752020491241,79.60242792109257,"train",0.5015220700120401,0.9334277620286422,38.98880887088562,165.0,"2022-03-25 23:19:47.795124","",""
32.0,0.6195028236472216,88.54320987654322,"val",0.4641833810777416,0.931034482714031,32.270480866818595,165.0,"2022-03-25 23:19:49.958910","",""
33.0,"","","train","","","",170.0,"2022-03-25 23:19:51.470493",0.11186571419239044,0.0006827316806651098
33.0,0.6273781462581878,71.32544378698225,"train",0.465885596137917,0.9602272727159064,41.97386483211982,170.0,"2022-03-25 23:20:01.435951","",""
33.0,0.5923344519683811,74.07058823529412,"val",0.42929292928389534,0.9550561797305686,40.531117525788424,170.0,"2022-03-25 23:20:03.558402","",""
34.0,0.6460218705800405,71.47492625368731,"train",0.4863701578163177,0.9617021276482067,36.6536261420387,175.0,"2022-03-25 23:20:14.911532","",""
34.0,0.613138642379059,73.83333333333333,"val",0.45283018866907393,0.9491525423281943,37.675567848387004,175.0,"2022-03-25 23:20:16.969771","",""
35.0,"","","train","","","",180.0,"2022-03-25 23:20:18.320005",0.09972245991230011,0.0007459001391293184
35.0,0.6203495755424105,66.32658959537572,"train",0.45556287030691484,0.9719101123481751,43.56660887193716,180.0,"2022-03-25 23:20:28.388435","",""
35.0,0.6007193815752105,69.78443113772455,"val",0.4360313315832021,0.9653179190286456,40.219177920248285,180.0,"2022-03-25 23:20:30.476725","",""
36.0,0.5944760645954131,68.5811209439528,"train",0.4274905422423944,0.9755395683336265,44.01566894422702,185.0,"2022-03-25 23:20:41.981933","",""
36.0,0.5982608270683332,63.872093023255815,"val",0.4310776942265857,0.977272727226455,50.545005621660316,185.0,"2022-03-25 23:20:44.187612","",""
37.0,"","","train","","","",190.0,"2022-03-25 23:20:45.586185",0.09193949401378632,0.0008105078093470317
37.0,0.6227598134407093,57.628776978417264,"train",0.45484293193469216,0.9872159090792232,43.33367647926095,190.0,"2022-03-25 23:20:55.817573","",""
37.0,0.6508226249279518,53.69662921348315,"val",0.4850136239671886,0.9888888888431071,49.21562383112945,190.0,"2022-03-25 23:20:57.927878","",""
38.0,0.6412213304128305,46.36694677871149,"train",0.472534745199247,0.9972067038990082,54.752663365171564,195.0,"2022-03-25 23:21:09.511275","",""
38.0,0.6502835098383278,40.0,"val",0.48314606740442073,0.9942196531312997,58.298749438101254,195.0,"2022-03-25 23:21:11.644968","",""
39.0,"","","train","","","",200.0,"2022-03-25 23:21:12.989553",0.08940150588750839,0.0008762385261964151
39.0,0.5730336668397971,-8.817927170868348,"train",0.40248027057308117,0.9944289693477897,81.11411136399168,200.0,"2022-03-25 23:21:23.328857","",""
39.0,0.5757575345982299,-15.91812865497076,"val",0.40521327013417824,0.9941860464634601,80.58916291986039,200.0,"2022-03-25 23:21:25.414452","",""
40.0,0.6786581951580598,9.15759312320917,"train",0.5155096011785111,0.992887624454802,67.93381939581086,205.0,"2022-03-25 23:21:37.080542","",""
40.0,0.6958250043048565,6.4,"val",0.5335365853522984,0.999999999952381,66.02614200883941,205.0,"2022-03-25 23:21:39.229572","",""
41.0,"","","train","","","",210.0,"2022-03-25 23:21:40.611163",0.08672647178173065,0.0009427706287967865
41.0,0.8536435515295462,44.29842180774749,"train",0.7576086956453114,0.9775596072817021,38.41616724358658,210.0,"2022-03-25 23:21:50.627141","",""
41.0,0.8769230276430008,37.53216374269006,"val",0.7808219177785076,0.9999999999512671,43.005410587072205,210.0,"2022-03-25 23:21:52.727640","",""
42.0,0.9262457973106578,36.09182209469154,"train",0.8789407313905113,0.9789325842582053,30.166494553843318,215.0,"2022-03-25 23:22:04.320340","",""
42.0,0.932249272645376,36.52325581395349,"val",0.8775510203708525,0.9942196531312997,24.247381419005748,215.0,"2022-03-25 23:22:06.415633","",""
43.0,"","","train","","","",220.0,"2022-03-25 23:22:07.819512",0.08546706289052963,0.0010097785345934164
43.0,0.9392117069554706,38.04551920341394,"train",0.8955414012643784,0.9873595505502415,28.593350980966797,220.0,"2022-03-25 23:22:18.010524","",""
43.0,0.9637882508378556,38.25433526011561,"val",0.9351351350930119,0.994252873515601,26.32882431625157,220.0,"2022-03-25 23:22:20.070063","",""
44.0,0.9387204888444365,35.43758967001435,"train",0.8924455825769051,0.9900568181700987,27.145485478283774,225.0,"2022-03-25 23:22:31.696384","",""
44.0,0.9725274225206825,34.056497175141246,"val",0.9465240641289429,0.9999999999529191,24.691936402871246,225.0,"2022-03-25 23:22:33.766942","",""
45.0,"","","train","","","",230.0,"2022-03-25 23:22:35.113723",0.0779310017824173,0.0010769343326334927
45.0,0.9438502175050905,45.3399433427762,"train",0.8970775095203612,0.995768688281667,27.63953560768864,230.0,"2022-03-25 23:22:45.265901","",""
45.0,0.9513513014019992,43.30681818181818,"val",0.9119170984062213,0.9943502824390608,25.2828804613218,230.0,"2022-03-25 23:22:47.227760","",""
46.0,0.9558723193682431,39.97443181818182,"train",0.9226736566085334,0.9915492957630099,28.297213658124242,235.0,"2022-03-25 23:22:58.779704","",""
46.0,0.9776535812456462,37.817142857142855,"val",0.9668508286847676,0.9887005649252025,25.37784732190415,235.0,"2022-03-25 23:23:00.795663","",""
47.0,"","","train","","","",240.0,"2022-03-25 23:23:02.265514",0.07844540476799011,0.001143909388236369
47.0,0.948648598720145,41.44159544159544,"train",0.9116883116784449,0.9887323943545923,27.645216311668708,240.0,"2022-03-25 23:23:12.382764","",""
47.0,0.9664803969213951,39.410404624277454,"val",0.9402173912617656,0.994252873515601,27.577307131451512,240.0,"2022-03-25 23:23:14.373427","",""
48.0,0.9485637443570905,45.08450704225352,"train",0.9056122448883331,0.9957924263558228,28.188323663428015,245.0,"2022-03-25 23:23:26.072803","",""
48.0,0.9625359730587718,45.94011976047904,"val",0.9329608938113148,0.9940476189983111,25.86971053836805,245.0,"2022-03-25 23:23:28.151099","",""
49.0,"","","train","","","",250.0,"2022-03-25 23:23:29.649017",0.07467550784349442,0.001210375951205462
49.0,0.9458193480831932,41.55586987270156,"train",0.905249679887908,0.9901960784198155,27.064816723929585,250.0,"2022-03-25 23:23:39.767934","",""
49.0,0.9774010799230239,39.225433526011564,"val",0.9558011049283702,0.9999999999518305,22.81113814907064,250.0,"2022-03-25 23:23:41.857601","",""
50.0,0.9547602471706386,44.2942008486563,"train",0.9169909208720601,0.9957746478756364,27.34769593100607,255.0,"2022-03-25 23:23:53.216134","",""
50.0,0.9661016448953074,41.1578947368421,"val",0.9447513811719729,0.9884393063107689,23.07054232247797,255.0,"2022-03-25 23:23:55.249963","",""
51.0,"","","train","","","",260.0,"2022-03-25 23:23:56.613932",0.07255508005619049,0.0012760087597118244
51.0,0.9484259380462277,53.09322033898305,"train",0.9053708439801217,0.9957805907056284,28.926114905526493,260.0,"2022-03-25 23:24:06.785550","",""
51.0,0.9639888696695111,48.804597701149426,"val",0.9354838709258296,0.9942857142383674,26.442668010335534,260.0,"2022-03-25 23:24:08.814433","",""
52.0,0.953597798100992,47.207334273624824,"train",0.9136597938046213,0.9971870604665121,27.766468241753003,265.0,"2022-03-25 23:24:20.719555","",""
52.0,0.9637882508564775,42.554913294797686,"val",0.930107526840049,0.9999999999518305,24.700135536322737,265.0,"2022-03-25 23:24:22.775912","",""
53.0,"","","train","","","",270.0,"2022-03-25 23:24:24.157604",0.07360482215881348,0.0013404866320005978
53.0,0.9378757016537664,46.42735042735042,"train",0.8874841972093606,0.9943342776086598,29.528676362776565,270.0,"2022-03-25 23:24:34.373584","",""
53.0,0.9572192013857538,42.23463687150838,"val",0.9179487179094894,0.9999999999534451,26.314189435554738,270.0,"2022-03-25 23:24:36.487052","",""
54.0,0.9465240142638861,40.740112994350284,"train",0.9053708439801217,0.9915966386438888,27.150037737354523,275.0,"2022-03-25 23:24:47.762030","",""
54.0,0.966101644909671,39.32163742690059,"val",0.9395604395174194,0.9941860464634601,23.485881031912538,275.0,"2022-03-25 23:24:49.734264","",""
55.0,"","","train","","","",280.0,"2022-03-25 23:24:51.077894",0.06838653981685638,0.0014034940381311555
55.0,0.9585315611890638,45.6822695035461,"train",0.9288537549305131,0.9901685393142535,27.44807679368536,280.0,"2022-03-25 23:25:01.429046","",""
55.0,0.9700271979572721,42.146067415730336,"val",0.9417989417574163,0.9999999999531836,25.962830199161864,280.0,"2022-03-25 23:25:03.498204","",""
56.0,0.952185742422872,47.230989956958396,"train",0.9146981627196554,0.9928774928657065,26.676117095011357,285.0,"2022-03-25 23:25:14.961824","",""
56.0,0.9579831432988908,40.44444444444444,"val",0.9243243242826882,0.9941860464634601,30.27575238678793,285.0,"2022-03-25 23:25:17.079564","",""
57.0,"","","train","","","",290.0,"2022-03-25 23:25:18.453655",0.06752178072929382,0.0014647226440594326
57.0,0.9556918382616326,38.97860199714693,"train",0.9223684210425178,0.9915134370463046,26.286598806050176,290.0,"2022-03-25 23:25:28.506583","",""
57.0,0.9666666166604965,35.44827586206897,"val",0.9405405404981739,0.9942857142383674,25.534632160187545,290.0,"2022-03-25 23:25:30.557095","",""
58.0,0.9591280154333032,43.51704545454545,"train",0.9299867899501322,0.9901547116620938,26.533956467442163,295.0,"2022-03-25 23:25:41.801386","",""
58.0,0.9714285214084382,41.694117647058825,"val",0.9497206703468474,0.9941520467351779,22.892086240811416,295.0,"2022-03-25 23:25:43.888056","",""
59.0,"","","train","","","",300.0,"2022-03-25 23:25:45.376773",0.06749303638935089,0.0015238728205063073
59.0,0.9530292216778117,45.651428571428575,"train",0.9174311926505304,0.9915014164188916,30.31461101212296,300.0,"2022-03-25 23:25:55.291678","",""
59.0,0.9802816401142657,39.11494252873563,"val",0.9613259668065689,0.9999999999521073,32.88185933417633,300.0,"2022-03-25 23:25:57.371906","",""
60.0,0.9432431933444754,45.088825214899714,"train",0.9006451612806381,0.9900709219741125,29.54566406105965,305.0,"2022-03-25 23:26:08.862585","",""
60.0,0.9750692020421395,42.125,"val",0.961748633835986,0.9887640448975299,24.406739242564655,305.0,"2022-03-25 23:26:10.961382","",""
61.0,"","","train","","","",310.0,"2022-03-25 23:26:12.447113",0.06331963837146759,0.0015806551092282012
61.0,0.9496598140181122,53.730659025787965,"train",0.9124183006436555,0.9900709219741125,29.917684679562726,310.0,"2022-03-25 23:26:22.775010","",""
61.0,0.9641872778253383,50.902857142857144,"val",0.935828876963644,0.9943181817711024,29.807510901154576,310.0,"2022-03-25 23:26:24.960041","",""
62.0,0.9621472315371454,47.90271816881259,"train",0.929521276585444,0.9971469329410705,27.14517176709975,315.0,"2022-03-25 23:26:36.496655","",""
62.0,0.9831460173697054,45.542857142857144,"val",0.983146067369703,0.983146067369703,25.441858486857953,315.0,"2022-03-25 23:26:38.552275","",""
63.0,"","","train","","","",320.0,"2022-03-25 23:26:39.928306",0.06109492853283882,0.0016347916395145414
63.0,0.9545762212503252,43.35511363636363,"train",0.9190600522093226,0.992947813810614,27.880202877437725,320.0,"2022-03-25 23:26:50.269874","",""
63.0,0.9726775456080132,40.01123595505618,"val",0.9518716577115922,0.9944134077749343,24.50269161184591,320.0,"2022-03-25 23:26:52.297066","",""
64.0,0.9556918382718553,47.067047075606276,"train",0.919947506551619,0.9943262411229984,26.38597109171554,325.0,"2022-03-25 23:27:03.884009","",""
64.0,0.9722221722157948,42.81142857142857,"val",0.9459459459033358,0.999999999952381,27.4676721300677,325.0,"2022-03-25 23:27:05.902860","",""
65.0,"","","train","","","",330.0,"2022-03-25 23:27:07.246262",0.061415452510118484,0.0016860174879802872
65.0,0.9596166509221687,47.96005706134094,"train",0.9321808510534997,0.9887165021040347,27.608400838483387,330.0,"2022-03-25 23:27:17.623923","",""
65.0,0.9698629636997586,44.38418079096045,"val",0.941489361660395,0.9999999999529191,28.99891637428145,330.0,"2022-03-25 23:27:19.697104","",""
66.0,0.9466576138205425,47.0641940085592,"train",0.9080310880730997,0.9887165021040347,28.521186440800307,335.0,"2022-03-25 23:27:31.376218","",""
66.0,0.9836956021426557,41.966850828729285,"val",0.9679144384595404,0.9999999999539596,29.150381772560632,335.0,"2022-03-25 23:27:33.430815","",""
67.0,"","","train","","","",340.0,"2022-03-25 23:27:34.780422",0.06013690307736397,0.0017340819749992146
67.0,0.9548563112169202,47.27220630372493,"train",0.9184210526215084,0.9943019942901911,26.620065917628217,340.0,"2022-03-25 23:27:44.873511","",""
67.0,0.9779005024655867,43.570621468926554,"val",0.9567567567136597,0.9999999999529191,25.57799275105649,340.0,"2022-03-25 23:27:46.849196","",""
68.0,0.9517334646911081,46.37714285714286,"train",0.9138381200944969,0.9929078014067031,29.386790868535144,345.0,"2022-03-25 23:27:58.449686","",""
68.0,0.9807162034170936,43.01123595505618,"val",0.9621621621188216,0.9999999999531836,33.75206839505285,345.0,"2022-03-25 23:28:00.468139","",""
69.0,"","","train","","","",350.0,"2022-03-25 23:28:01.818908",0.05710393190383911,0.0017787498914337246
69.0,0.9579945299970434,41.40594059405941,"train",0.9253926701469742,0.9929775280782657,27.8423145002705,350.0,"2022-03-25 23:28:11.868125","",""
69.0,0.9714285214084382,37.98823529411764,"val",0.9497206703468474,0.9941520467351779,25.733015697461756,350.0,"2022-03-25 23:28:13.884763","",""
70.0,0.9502018343185443,42.77620396600567,"train",0.9145077720108536,0.9887955181957423,27.93250262455155,355.0,"2022-03-25 23:28:25.478974","",""
70.0,0.9745041992654382,39.54651162790697,"val",0.955555555511317,0.9942196531312997,28.987630472141042,355.0,"2022-03-25 23:28:27.406432","",""
71.0,"","","train","","","",360.0,"2022-03-25 23:28:28.761411",0.05811320245265961,0.001819802649658012
71.0,0.9580513708809061,45.37005649717514,"train",0.9279161205665365,0.9902097901982492,27.22523352837904,360.0,"2022-03-25 23:28:39.014823","",""
71.0,0.9777777277572041,42.375,"val",0.9565217390871141,0.9999999999526515,28.89904547810281,360.0,"2022-03-25 23:28:41.097524","",""
72.0,0.9565216891684353,49.14204545454545,"train",0.9275362318738741,0.987377279090844,27.204449926732863,365.0,"2022-03-25 23:28:52.699793","",""
72.0,0.9803921068205086,47.33714285714286,"val",0.972222222177212,0.9887005649252025,30.630247288906954,365.0,"2022-03-25 23:28:54.781464","",""
73.0,"","","train","","","",370.0,"2022-03-25 23:28:56.284172",0.05401608347892761,0.0018570393532419485
73.0,0.9558723193544165,45.0625,"train",0.9263157894635272,0.987377279090844,27.767634906405956,370.0,"2022-03-25 23:29:06.432494","",""
73.0,0.9745041992654382,44.81395348837209,"val",0.955555555511317,0.9942196531312997,26.574822683303072,370.0,"2022-03-25 23:29:08.478820","",""
74.0,0.9572880856469622,54.56090651558074,"train",0.9240837696234283,0.9929676511838611,28.95757082284526,375.0,"2022-03-25 23:29:20.012047","",""
74.0,0.9582172201974458,52.604651162790695,"val",0.9297297296878501,0.9885057470790947,28.509598167441965,375.0,"2022-03-25 23:29:22.178793","",""
75.0,"","","train","","","",380.0,"2022-03-25 23:29:23.547438",0.0525934100151062,0.0018902777800610452
75.0,0.9480781698778887,49.795163584637265,"train",0.9153645833234009,0.9832167832053237,27.1683677133004,380.0,"2022-03-25 23:29:34.019934","",""
75.0,0.982954495422534,49.040462427745666,"val",0.9664804468823799,0.9999999999518305,22.771637967873936,380.0,"2022-03-25 23:29:36.078873","",""
76.0,0.9460188434586332,45.457917261055634,"train",0.909208819704829,0.9859353023794428,28.462103055738762,385.0,"2022-03-25 23:29:47.635278","",""
76.0,0.9777777277572041,43.51136363636363,"val",0.9565217390871141,0.9999999999526515,28.974320259570064,385.0,"2022-03-25 23:29:49.694003","",""
77.0,"","","train","","","",390.0,"2022-03-25 23:29:51.089525",0.05237238481640816,0.001919355274021537
77.0,0.964705832386093,47.167862266857966,"train",0.9368279569787541,0.9942938658940288,27.1561022287164,390.0,"2022-03-25 23:30:01.279976","",""
77.0,0.9800569300140989,45.2093023255814,"val",0.9717514123836276,0.9885057470790947,25.566655372870162,390.0,"2022-03-25 23:30:03.383555","",""
78.0,0.9561643336093726,43.95702005730659,"train",0.9245033112480738,0.9900709219741125,28.81287097484996,395.0,"2022-03-25 23:30:15.092631","",""
78.0,0.9776535812643722,42.582857142857144,"val",0.9562841529619179,0.999999999952381,26.783422225743465,395.0,"2022-03-25 23:30:17.285980","",""
79.0,"","","train","","","",400.0,"2022-03-25 23:30:18.678662",0.05201517790555954,0.0019441295410368286
79.0,0.9498644487114697,52.14835948644793,"train",0.9139504563134077,0.9887165021040347,28.8746756004629,400.0,"2022-03-25 23:30:28.919740","",""
79.0,0.9555555055498998,49.2906976744186,"val",0.9297297296878501,0.9828571428103402,28.857857854982353,400.0,"2022-03-25 23:30:31.029976","",""
80.0,0.9615384115962331,40.86571428571428,"train",0.9271523178705612,0.9985734664645913,26.497206783865707,405.0,"2022-03-25 23:30:42.634653","",""
80.0,0.9803921068362011,38.36571428571428,"val",0.9615384614944351,0.999999999952381,23.501561563401854,405.0,"2022-03-25 23:30:44.703727","",""
81.0,"","","train","","","",410.0,"2022-03-25 23:30:46.115012",0.05192264914512634,0.001964479345360098
81.0,0.9407007586965088,50.68767908309456,"train",0.9041450777104474,0.9803370786402114,29.051232140525222,410.0,"2022-03-25 23:30:56.402815","",""
81.0,0.9359330976761535,47.23809523809524,"val",0.8983957218850983,0.9767441859991888,27.333748130252324,410.0,"2022-03-25 23:30:58.458076","",""
82.0,0.9562289062918925,45.33802816901409,"train",0.9208819714556756,0.9943977590920354,27.514627946629773,415.0,"2022-03-25 23:31:10.080726","",""
82.0,0.9775280398671279,43.5632183908046,"val",0.9560439560001812,0.9999999999521073,24.793260647805216,415.0,"2022-03-25 23:31:12.113948","",""
83.0,"","","train","","","",420.0,"2022-03-25 23:31:13.473617",0.04960828647017479,0.0019803051028654743
83.0,0.9558123225947618,47.47083926031294,"train",0.9213630406190326,0.9929378530956574,27.76827380597058,420.0,"2022-03-25 23:31:23.740277","",""
83.0,0.9695290358588947,46.64,"val",0.9459459459033358,0.9943181817711024,26.439831423711567,420.0,"2022-03-25 23:31:25.821466","",""
84.0,0.9512194622726062,45.03133903133902,"train",0.9128738621487551,0.9929278642032893,30.89577439416226,425.0,"2022-03-25 23:31:37.515318","",""
84.0,0.9745041992654382,44.44186046511628,"val",0.955555555511317,0.9942196531312997,29.396885079079773,425.0,"2022-03-25 23:31:39.559254","",""
85.0,"","","train","","","",430.0,"2022-03-25 23:31:40.950446",0.04668775573372841,0.001991529368374499
85.0,0.9538669785659584,34.56045519203414,"train",0.9165580182429752,0.9943422913602741,24.95193617730324,430.0,"2022-03-25 23:31:51.036779","",""
85.0,0.9710982158642145,34.05952380952381,"val",0.9545454545002583,0.9882352940692041,22.820652295712627,430.0,"2022-03-25 23:31:53.133224","",""
86.0,0.9574611249172261,45.00141043723554,"train",0.9292267365560372,0.987465181047035,29.170502098027132,435.0,"2022-03-25 23:32:04.543483","",""
86.0,0.9723756405873881,41.19318181818182,"val",0.9513513513084978,0.9943502824390608,27.632473466485642,435.0,"2022-03-25 23:32:06.621953","",""
87.0,"","","train","","","",440.0,"2022-03-25 23:32:07.991585",0.04677942022681236,0.0019980972146430805
87.0,0.9531567728695175,46.81196581196581,"train",0.9188481675292446,0.9901269393395612,27.727129367700332,440.0,"2022-03-25 23:32:18.022125","",""
87.0,0.9802816401142657,42.57471264367816,"val",0.9613259668065689,0.9999999999521073,29.50302232088861,440.0,"2022-03-25 23:32:20.047261","",""
88.0,0.9598365736076349,46.709219858156025,"train",0.9264126149701444,0.9957627118526863,28.745431707877163,445.0,"2022-03-25 23:32:31.392145","",""
88.0,0.9756097060626784,45.34444444444444,"val",0.962566844876891,0.9890109889657047,25.65309646075287,445.0,"2022-03-25 23:32:33.473400","",""
89.0,"","","train","","","",450.0,"2022-03-25 23:32:34.831412",0.045225635170936584,0.001999995524010177
89.0,0.9518643568334643,47.56125356125356,"train",0.9188481675292446,0.9873417721403265,29.567077298357475,450.0,"2022-03-25 23:32:44.889727","",""
89.0,0.9686609186251219,45.588235294117645,"val",0.9550561797305686,0.9826589594902381,27.70338442592383,450.0,"2022-03-25 23:32:46.932954","",""
90.0,0.9505084246253094,48.0114122681883,"train",0.9187418086400312,0.9845505617862295,28.502318866093034,455.0,"2022-03-25 23:32:58.593240","",""
90.0,0.9803921068267857,45.55428571428571,"val",0.9668508286847676,0.9943181817711024,27.789539068373426,455.0,"2022-03-25 23:33:00.660212","",""
91.0,"","","train","","","",460.0,"2022-03-25 23:33:02.169223",0.04477483406662941,0.001999458453713358
91.0,0.9522509732598,46.50716332378224,"train",0.9160104986776464,0.9914772727155364,29.026232187290812,460.0,"2022-03-25 23:33:12.182671","",""
91.0,0.9611110610913093,42.115606936416185,"val",0.9402173912617656,0.9829545454080041,27.787559891923493,460.0,"2022-03-25 23:33:14.248966","",""
92.0,0.9628098673989639,43.273247496423465,"train",0.9319999999896443,0.9957264957146755,27.080941826267544,465.0,"2022-03-25 23:33:25.815545","",""
92.0,0.9774010799118521,40.69364161849711,"val",0.9611111110666153,0.994252873515601,26.6057452839483,465.0,"2022-03-25 23:33:27.872496","",""
93.0,"","","train","","","",470.0,"2022-03-25 23:33:29.377239",0.04197489470243454,0.001998026736321358
93.0,0.9571719418915431,49.20738636363637,"train",0.9250985545233782,0.9915492957630099,30.392922172257556,470.0,"2022-03-25 23:33:39.472466","",""
93.0,0.975069202063625,47.90909090909091,"val",0.9513513513084978,0.9999999999526515,29.810628200677158,470.0,"2022-03-25 23:33:41.664256","",""
94.0,0.9559321534435877,46.5531914893617,"train",0.9227748690998824,0.9915611814229774,28.376302552517025,475.0,"2022-03-25 23:33:52.876287","",""
94.0,0.9693592814627473,47.44827586206897,"val",0.945652173870215,0.9942857142383674,29.491771157271405,475.0,"2022-03-25 23:33:54.924582","",""
95.0,"","","train","","","",480.0,"2022-03-25 23:33:56.273881",0.043799158185720444,0.0019957016534151435
95.0,0.9492213447726979,49.055634807417974,"train",0.9163398692710638,0.9845505617862295,31.102674526243952,480.0,"2022-03-25 23:34:06.535541","",""
95.0,0.974358924322857,49.333333333333336,"val",0.9606741572583954,0.9884393063107689,27.11465799825941,480.0,"2022-03-25 23:34:08.636413","",""
96.0,0.9506422759594304,44.2674253200569,"train",0.9153645833234009,0.9887482419012101,31.545079938644335,485.0,"2022-03-25 23:34:20.217126","",""
96.0,0.983240173424157,42.67045454545455,"val",0.9723756905629662,0.9943502824390608,27.113071986048745,485.0,"2022-03-25 23:34:22.394542","",""
97.0,"","","train","","","",490.0,"2022-03-25 23:34:23.777089",0.04157697409391403,0.0019924852862588088
97.0,0.9542395193790643,41.52609308885754,"train",0.918393782373506,0.9929971988679621,31.729835556235543,490.0,"2022-03-25 23:34:33.886840","",""
97.0,0.9536784241338716,39.245714285714286,"val",0.9210526315385504,0.9887005649252025,32.60818777859453,490.0,"2022-03-25 23:34:36.038096","",""
98.0,0.9614603962871251,38.9845288326301,"train",0.9318479685350387,0.9930167597649787,29.516660289119596,495.0,"2022-03-25 23:34:47.474720","",""
98.0,0.9833332832939841,37.10734463276836,"val",0.9725274724829429,0.9943820224253567,31.800131511291987,495.0,"2022-03-25 23:34:49.540325","",""
99.0,"","","train","","","",500.0,"2022-03-25 23:34:50.906395",0.04048827663064003,0.001988380513936561
99.0,0.9494267875769573,40.67897727272727,"train",0.909560723504419,0.992947813810614,26.73500665367807,500.0,"2022-03-25 23:35:01.029734","",""
99.0,0.9854226904875261,39.928994082840234,"val",0.9712643677695755,0.9999999999506903,27.001550243572645,500.0,"2022-03-25 23:35:03.103856","",""
100.0,0.9566395164517888,47.5042492917847,"train",0.9228758169834108,0.9929676511838611,29.548598449482988,505.0,"2022-03-25 23:35:14.605860","",""
100.0,0.9857549357118339,47.225433526011564,"val",0.9774011298974858,0.994252873515601,29.43516516874803,505.0,"2022-03-25 23:35:16.654060","",""
101.0,"","","train","","","",510.0,"2022-03-25 23:35:18.016099",0.0403943695127964,0.0019833910107755503
101.0,0.9494535019973156,40.641726618705036,"train",0.9096858638644231,0.992857142845323,31.365604355521878,510.0,"2022-03-25 23:35:28.345130","",""
101.0,0.9772726772409849,37.593023255813954,"val",0.9608938547038691,0.9942196531312997,28.645336447007388,510.0,"2022-03-25 23:35:30.428136","",""
102.0,0.950819622193484,47.560344827586206,"train",0.9157894736741689,0.9886363636246609,30.86523975556403,515.0,"2022-03-25 23:35:41.657323","",""
102.0,0.9770114442209478,49.141176470588235,"val",0.960451977355911,0.9941520467351779,29.299127849367192,515.0,"2022-03-25 23:35:43.606718","",""
103.0,"","","train","","","",520.0,"2022-03-25 23:35:44.926252",0.03921850398182869,0.0019775212430568493
103.0,0.955570695109444,37.71101573676681,"train",0.9197368420951783,0.9943100995614709,29.837366161008173,520.0,"2022-03-25 23:35:55.265326","",""
103.0,0.9800569300303325,35.15116279069768,"val",0.9608938547038691,0.9999999999515504,26.51020753029068,520.0,"2022-03-25 23:35:57.282076","",""
104.0,0.9551019908680667,45.085470085470085,"train",0.9224704336298458,0.9901269393395612,26.984876839729562,525.0,"2022-03-25 23:36:08.548487","",""
104.0,0.9776535812643722,41.097142857142856,"val",0.9562841529619179,0.999999999952381,25.8723623717255,525.0,"2022-03-25 23:36:10.610590","",""
105.0,"","","train","","","",530.0,"2022-03-25 23:36:11.959202",0.038291994482278824,0.001970776465017526
105.0,0.9549427880021557,43.27042253521127,"train",0.9173126614888316,0.9957924263558228,29.544573126547533,530.0,"2022-03-25 23:36:22.079445","",""
105.0,0.9558010550031568,41.410404624277454,"val",0.9202127659166573,0.994252873515601,26.668578344833925,530.0,"2022-03-25 23:36:24.115043","",""
106.0,0.9591836235163615,46.780141843971634,"train",0.9276315789371969,0.9929577464672187,27.601801821795394,535.0,"2022-03-25 23:36:35.611302","",""
106.0,0.9690140345095575,44.825581395348834,"val",0.9398907103397136,0.9999999999515504,27.403824151938203,535.0,"2022-03-25 23:36:37.645461","",""
107.0,"","","train","","","",540.0,"2022-03-25 23:36:39.015231",0.03878658637404442,0.001963162714147391
107.0,0.9460188434699247,41.092724679029956,"train",0.9068564036124745,0.9887165021040347,29.50739100564233,540.0,"2022-03-25 23:36:49.084335","",""
107.0,0.975069202063625,40.0,"val",0.9513513513084978,0.9999999999526515,30.753418139659324,540.0,"2022-03-25 23:36:51.036368","",""
108.0,0.9515477293495862,45.125884016973124,"train",0.9134366924966253,0.9929775280782657,29.554537995987676,545.0,"2022-03-25 23:37:02.382518","",""
108.0,0.9662920848114742,43.18604651162791,"val",0.9450549450116734,0.9885057470790947,24.277231953966123,545.0,"2022-03-25 23:37:04.428870","",""
109.0,"","","train","","","",550.0,"2022-03-25 23:37:05.748769",0.03658158704638481,0.0019546868057846267
109.0,0.9385549805025434,46.555395683453234,"train",0.8933161953631821,0.9886201991347958,31.337696913861066,550.0,"2022-03-25 23:37:15.559278","",""
109.0,0.9373296503371993,43.93023255813954,"val",0.8958333332944517,0.9828571428103402,28.81690020032028,550.0,"2022-03-25 23:37:17.508489","",""
110.0,0.9512194622670064,45.547008547008545,"train",0.9140624999900817,0.991525423717143,29.76670803104745,555.0,"2022-03-25 23:37:28.997586","",""
110.0,0.9719100623393011,44.23121387283237,"val",0.9505494505059273,0.994252873515601,28.298854267651418,555.0,"2022-03-25 23:37:30.981862","",""
111.0,"","","train","","","",560.0,"2022-03-25 23:37:32.305787",0.03704775124788284,0.0019453563270151349
111.0,0.9532836332000808,43.22443181818182,"train",0.9190600522093226,0.9901547116620938,29.600093571640897,560.0,"2022-03-25 23:37:42.228375","",""
111.0,0.9775280398671279,42.50574712643678,"val",0.9560439560001812,0.9999999999521073,29.4161084821719,560.0,"2022-03-25 23:37:44.251208","",""
112.0,0.956878800152683,45.685264663805434,"train",0.9246031745929827,0.9914893616904078,29.087081485364727,565.0,"2022-03-25 23:37:55.709761","",""
112.0,0.960451927381449,43.64705882352941,"val",0.9392265192937742,0.9826589594902381,26.710960906076583,565.0,"2022-03-25 23:37:57.756677","",""
113.0,"","","train","","","",570.0,"2022-03-25 23:37:59.108012",0.03634868562221527,0.0019351796298810696
113.0,0.9577079991753067,45.10826210826211,"train",0.9224704336298458,0.9957446808392937,28.35122039911745,570.0,"2022-03-25 23:38:09.083562","",""
113.0,0.9623655413908667,40.26815642458101,"val",0.9371727748282211,0.9889502761975623,28.85245925360814,570.0,"2022-03-25 23:38:11.290499","",""
114.0,0.9534098082725425,45.77053824362606,"train",0.9168831168731938,0.9929676511838611,28.39340253724983,575.0,"2022-03-25 23:38:22.764646","",""
114.0,0.972066989099906,45.40229885057471,"val",0.945652173870215,0.9999999999521073,27.459671482624785,575.0,"2022-03-25 23:38:24.807038","",""
115.0,"","","train","","","",580.0,"2022-03-25 23:38:26.158061",0.03576015681028366,0.0019241658239046258
115.0,0.9548212582222734,41.720338983050844,"train",0.9194805194705683,0.9929873772674965,28.9787723574122,580.0,"2022-03-25 23:38:35.975301","",""
115.0,0.9774010799230239,41.16763005780347,"val",0.9558011049283702,0.9999999999518305,29.667145636571178,580.0,"2022-03-25 23:38:38.012212","",""
116.0,0.9569377490837664,43.22,"train",0.9271523178705612,0.988700564960114,27.801184969606705,585.0,"2022-03-25 23:38:49.497747","",""
116.0,0.9688384768989425,41.345029239766085,"val",0.9447513811719729,0.9941860464634601,27.846555665396853,585.0,"2022-03-25 23:38:51.644792","",""
117.0,"","","train","","","",590.0,"2022-03-25 23:38:52.995185",0.03575612232089043,0.0019123247679337853
117.0,0.9554655371051836,42.33050847457627,"train",0.9206762028508811,0.9929873772674965,27.050033705529223,590.0,"2022-03-25 23:39:03.086119","",""
117.0,0.9807162034170936,38.17977528089887,"val",0.9621621621188216,0.9999999999531836,27.059053936704835,590.0,"2022-03-25 23:39:05.118170","",""
118.0,0.9470863533112277,41.937765205091935,"train",0.905249679887908,0.9929775280782657,30.36648523083356,595.0,"2022-03-25 23:39:16.497983","",""
118.0,0.9715908590707348,41.333333333333336,"val",0.9499999999560186,0.9941860464634601,32.07739179433835,595.0,"2022-03-25 23:39:18.692927","",""
119.0,"","","train","","","",600.0,"2022-03-25 23:39:20.058482",0.035213030874729156,0.0018996670613173118
119.0,0.9575341966328135,48.254649499284696,"train",0.9233817701351454,0.9943100995614709,26.385246245597397,600.0,"2022-03-25 23:39:30.310019","",""
119.0,0.9666666166604965,44.86206896551724,"val",0.9405405404981739,0.9942857142383674,26.342864162256653,600.0,"2022-03-25 23:39:32.277605","",""
120.0,0.9567567068227746,37.98870056497175,"train",0.9206762028508811,0.9957805907056284,25.68672384573961,605.0,"2022-03-25 23:39:43.754739","",""
120.0,0.9722221722019059,33.04,"val",0.9510869564786646,0.9943181817711024,26.79005359137177,605.0,"2022-03-25 23:39:45.809055","",""
121.0,"","","train","","","",610.0,"2022-03-25 23:39:47.119479",0.034057680517435074,0.0018862040344168975
121.0,0.957345921608211,40.07072135785007,"train",0.9266055045770357,0.9901960784198155,29.01359150682007,610.0,"2022-03-25 23:39:57.185542","",""
121.0,0.9809263804913568,37.2,"val",0.962566844876891,0.9999999999537038,26.532663308123105,610.0,"2022-03-25 23:39:59.263781","",""
122.0,0.9497282109311798,46.94134477825465,"train",0.9149214659586068,0.9872881355815997,28.081238044186897,615.0,"2022-03-25 23:40:10.423557","",""
122.0,0.9550561297558205,44.694117647058825,"val",0.9340659340231655,0.9770114942060819,30.111371129197632,615.0,"2022-03-25 23:40:12.423162","",""
123.0,"","","train","","","",620.0,"2022-03-25 23:40:13.770846",0.034377627074718475,0.0018719477384649573
123.0,0.9545762212503252,42.0,"train",0.9190600522093226,0.992947813810614,26.519932469405312,620.0,"2022-03-25 23:40:23.820312","",""
123.0,0.9774010799230239,38.67052023121387,"val",0.9558011049283702,0.9999999999518305,26.667966934564046,620.0,"2022-03-25 23:40:25.930136","",""
124.0,0.9482178384393529,45.6822695035461,"train",0.9108527131684877,0.9887798036350072,28.8882618280349,625.0,"2022-03-25 23:40:37.398148","",""
124.0,0.9613259168615148,42.67816091954023,"val",0.9304812833809947,0.9942857142383674,28.51214472146533,625.0,"2022-03-25 23:40:39.401564","",""
125.0,"","","train","","","",630.0,"2022-03-25 23:40:40.755054",0.03265180438756943,0.00185691093477714
125.0,0.9510869065996758,46.48285714285714,"train",0.912646675348624,0.9929078014067031,29.48648102546837,630.0,"2022-03-25 23:40:50.857475","",""
125.0,0.9690140344809919,41.24418604651163,"val",0.9502762430501716,0.9885057470790947,28.20293405753662,630.0,"2022-03-25 23:40:52.934393","",""
126.0,0.9508631638911988,44.770949720670394,"train",0.9121019108183428,0.9930651872284666,29.49515715750766,635.0,"2022-03-25 23:41:04.450952","",""
126.0,0.9562841029858089,41.92,"val",0.935828876963644,0.9776536312394016,26.186461060195647,635.0,"2022-03-25 23:41:06.420381","",""
127.0,"","","train","","","",640.0,"2022-03-25 23:41:07.763126",0.03259289637207985,0.0018411070833292264
127.0,0.9555255565294734,41.66713681241185,"train",0.9207792207692556,0.9929971988679621,29.198060204897413,640.0,"2022-03-25 23:41:17.917681","",""
127.0,0.9779005024472722,38.067796610169495,"val",0.9672131147100541,0.9888268155964234,28.609111823435978,640.0,"2022-03-25 23:41:19.895665","",""
128.0,0.960597776133772,42.47807637906648,"train",0.9290407358636766,0.9943741209447448,30.86830195076703,645.0,"2022-03-25 23:41:31.177082","",""
128.0,0.9803921068205086,40.754285714285714,"val",0.972222222177212,0.9887005649252025,28.913707504100078,645.0,"2022-03-25 23:41:33.351764","",""
129.0,"","","train","","","",650.0,"2022-03-25 23:41:34.710651",0.031316857784986496,0.001824550330708625
129.0,0.9511532743597475,43.71469329529244,"train",0.9139504563134077,0.9915134370463046,27.548192467301554,650.0,"2022-03-25 23:41:44.876006","",""
129.0,0.9558010550260498,38.589595375722546,"val",0.9153439153035563,0.9999999999518305,27.377035783217757,650.0,"2022-03-25 23:41:46.965219","",""
130.0,0.9523169413319219,45.54583921015515,"train",0.9172056920987796,0.9902234636756257,28.55726338917651,655.0,"2022-03-25 23:41:58.204518","",""
130.0,0.9749303121031571,41.222857142857144,"val",0.9510869564786646,0.999999999952381,27.455762712451623,655.0,"2022-03-25 23:42:00.241071","",""
